0.10724
0.1076
0.10795
0.1083
0.10863
0.10896
0.10927
0.10958
0.10988
0.11017
0.11044
0.11071
0.11096
0.11121
0.11144
0.11166
0.11187
0.11207
0.11225
0.11242
0.11258
0.11272
0.11285
0.11297
0.11308
0.11316
0.11324
0.1133
0.11334
0.11337
0.11338
0.11338
0.11336
0.11332
0.11327
0.1132
0.11311
0.11301
0.11288
0.11274
0.11258
0.11241
0.11221
0.112
0.11176
0.11151
0.11124
0.11095
0.11064
0.11031
0.10996
0.10959
0.1092
0.10879
0.10836
0.10791
0.10744
0.10695
0.10644
0.10591
0.10536
0.10478
0.10419
0.10357
0.10293
0.10227
0.10158
0.10088
0.10015
0.099392
0.098616
0.097815
0.096991
0.096142
0.095269
0.094371
0.093447
0.092499
0.091524
0.090524
0.089497
0.088444
0.087363
0.086256
0.085121
0.083959
0.082768
0.08155
0.080303
0.079028
0.077723
0.07639
0.075027
0.073635
0.072214
0.070762
0.069281
0.06777
0.066228
0.064657
0.063055
0.061423
0.059761
0.058068
0.056345
0.054592
0.052808
0.050994
0.049151
0.047277
0.045374
0.043441
0.041478
0.039487
0.037466
0.035417
0.033339
0.031232
0.029098
0.026935
0.024744
0.022525
0.020278
0.018004
0.015702
0.013373
0.011017
0.0086333
0.006223
0.0037859
0.0013221
-0.0011683
-0.003685
-0.0062279
-0.0087969
-0.011392
-0.014012
-0.016658
-0.01933
-0.022026
-0.024748
-0.027494
-0.030264
-0.033058
-0.035876
-0.038718
-0.041582
-0.04447
-0.04738
-0.050311
-0.053264
-0.056239
-0.059234
-0.062248
-0.065283
-0.068337
-0.071409
-0.074499
-0.077607
-0.080733
-0.083875
-0.087033
-0.090206
-0.093395
-0.096599
-0.099816
-0.10305
-0.10629
-0.10955
-0.11282
-0.11609
-0.11938
-0.12268
-0.12599
-0.12931
-0.13263
-0.13597
-0.13931
-0.14265
-0.146
-0.14935
-0.15271
-0.15606
-0.15942
-0.16278
-0.16614
-0.16949
-0.17285
-0.1762
-0.17954
-0.18288
-0.18621
-0.18953
-0.19284
-0.19613
-0.19942
-0.20269
-0.20595
-0.20919
-0.21242
-0.21562
-0.21881
-0.22197
-0.22511
-0.22823
-0.23133
-0.2344
-0.23745
-0.24046
-0.24345
-0.24641
-0.24935
-0.25224
-0.25511
-0.25794
-0.26074
-0.26351
-0.26623
-0.26892
-0.27158
-0.27419
-0.27676
-0.2793
-0.28179
-0.28424
-0.28664
-0.289
-0.29132
-0.29359
-0.29581
-0.29799
-0.30012
-0.3022
-0.30422
-0.3062
-0.30813
-0.31
-0.31182
-0.31358
-0.31529
-0.31695
-0.31854
-0.32008
-0.32156
-0.32298
-0.32435
-0.32565
-0.32688
-0.32806
-0.32917
-0.33022
-0.3312
-0.33212
-0.33297
-0.33375
-0.33446
-0.3351
-0.33567
-0.33617
-0.3366
-0.33696
-0.33724
-0.33745
-0.33759
-0.33765
-0.33763
-0.33754
-0.33737
-0.33713
-0.33681
-0.33641
-0.33593
-0.33537
-0.33474
-0.33402
-0.33323
-0.33235
-0.3314
-0.33037
-0.32925
-0.32806
-0.32679
-0.32543
-0.324
-0.32249
-0.32089
-0.31922
-0.31747
-0.31563
-0.31372
-0.31173
-0.30966
-0.30751
-0.30529
-0.30298
-0.3006
-0.29815
-0.29561
-0.293
-0.29032
-0.28757
-0.28474
-0.28183
-0.27886
-0.27582
-0.2727
-0.26952
-0.26627
-0.26295
-0.25957
-0.25612
-0.25261
-0.24904
-0.24541
-0.24172
-0.23798
-0.23417
-0.23031
-0.2264
-0.22244
-0.21842
-0.21436
-0.21025
-0.20609
-0.20189
-0.19764
-0.19335
-0.18902
-0.18465
-0.18024
-0.1758
-0.17132
-0.1668
-0.16226
-0.15769
-0.15308
-0.14845
-0.14379
-0.13911
-0.1344
-0.12968
-0.12493
-0.12016
-0.11537
-0.11057
-0.10575
-0.10092
-0.09607
-0.09121
-0.086339
-0.081459
-0.076569
-0.071672
-0.066768
-0.061859
-0.056946
-0.052029
-0.04711
-0.042191
-0.037271
-0.032353
-0.027437
-0.022524
-0.017616
-0.012714
-0.0078191
-0.0029323
0.0019453
0.0068122
0.011667
0.01651
0.021337
0.02615
0.030945
0.035722
0.04048
0.045216
0.04993
0.054621
0.059285
0.063924
0.068533
0.073113
0.077661
0.082176
0.086656
0.0911
0.095505
0.09987
0.10419
0.10847
0.11271
0.11689
0.12103
0.12511
0.12914
0.13312
0.13704
0.1409
0.1447
0.14844
0.15211
0.15573
0.15927
0.16275
0.16616
0.1695
0.17277
0.17597
0.17909
0.18214
0.18512
0.18802
0.19084
0.19359
0.19626
0.19884
0.20135
0.20378
0.20613
0.2084
0.21059
0.2127
0.21472
0.21667
0.21853
0.22031
0.222
0.22362
0.22515
0.22661
0.22798
0.22927
0.23047
0.2316
0.23265
0.23362
0.23451
0.23532
0.23605
0.23671
0.23729
0.23779
0.23822
0.23858
0.23886
0.23907
0.2392
0.23927
0.23927
0.2392
0.23906
0.23886
0.2386
0.23827
0.23787
0.23742
0.23691
0.23634
0.23571
0.23503
0.23429
0.2335
0.23266
0.23177
0.23083
0.22985
0.22881
0.22774
0.22662
0.22546
0.22426
0.22302
0.22174
0.22043
0.21909
0.21771
0.2163
0.21487
0.2134
0.21191
0.21039
0.20885
0.20729
0.20571
0.20412
0.2025
0.20087
0.19923
0.19757
0.19591
0.19423
0.19256
0.19087
0.18918
0.18749
0.1858
0.18412
0.18243
0.18075
0.17908
0.17741
0.17575
0.1741
0.17246
0.17084
0.16923
0.16763
0.16605
0.16448
0.16293
0.16141
0.1599
0.15841
0.15695
0.1555
0.15408
0.15269
0.15132
0.14997
0.14865
0.14736
0.14609
0.14486
0.14365
0.14247
0.14132
0.1402
0.13911
0.13805
0.13702
0.13602
0.13506
0.13413
0.13323
0.13236
0.13152
0.13072
0.12995
0.12922
0.12851
0.12784
0.12721
0.1266
0.12603
0.12549
0.12499
0.12451
0.12407
0.12366
0.12329
0.12294
0.12262
0.12234
0.12208
0.12186
0.12166
0.12149
0.12135
0.12124
0.12115
0.1211
0.12107
0.12106
0.12108
0.12112
0.12119
0.12128
0.12139
0.12152
0.12168
0.12185
0.12204
0.12226
0.12249
0.12273
0.123
0.12328
0.12357
0.12388
0.1242
0.12454
0.12488
0.12524
0.12561
0.12599
0.12637
0.12677
0.12717
0.12758
0.12799
0.12841
0.12884
0.12926
0.1297
0.13013
0.13057
0.131
0.13144
0.13188
0.13231
0.13275
0.13318
0.13361
0.13404
0.13446
0.13488
0.1353
0.13571
0.13611
0.13651
0.1369
0.13728
0.13765
0.13802
0.13838
0.13873
0.13907
0.13939
0.13971
0.14002
0.14032
0.1406
0.14088
0.14114
0.14138
0.14162
0.14184
0.14205
0.14224
0.14242
0.14258
0.14273
0.14286
0.14298
0.14308
0.14316
0.14323
0.14328
0.14331
0.14332
0.14332
0.1433
0.14326
0.1432
0.14312
0.14303
0.14292
0.14278
0.14263
0.14246
0.14227
0.14206
0.14183
0.14158
0.14132
0.14103
0.14072
0.1404
0.14005
0.13969
0.13931
0.1389
0.13848
0.13804
0.13759
0.13711
0.13662
0.1361
0.13557
0.13502
0.13446
0.13388
0.13328
0.13267
0.13204
0.13139
0.13073
0.13005
0.12936
0.12866
0.12794
0.12721
0.12646
0.1257
0.12492
0.12413
0.12333
0.12251
0.12168
0.12084
0.11998
0.11911
0.11823
0.11733
0.11642
0.1155
0.11456
0.11361
0.11265
0.11167
0.11068
0.10967
0.10865
0.10761
0.10656
0.10549
0.10441
0.10331
0.10219
0.10105
0.09989
0.098714
0.097519
0.096303
0.095066
0.093808
0.092527
0.091223
0.089896
0.088544
0.087167
0.085764
0.084335
0.082879
0.081395
0.079882
0.078339
0.076766
0.075162
0.073527
0.071859
0.070157
0.068422
0.066652
0.064846
0.063005
0.061126
0.05921
0.057256
0.055262
0.053229
0.051156
0.049041
0.046885
0.044687
0.042446
0.040161
0.037833
0.035459
0.033041
0.030578
0.028068
0.025512
0.022909
0.020259
0.017561
0.014816
0.012023
0.0091814
0.0062914
0.003353
0.00036588
-0.0026699
-0.0057543
-0.0088874
-0.012069
-0.015299
-0.018577
-0.021903
-0.025277
-0.028698
-0.032165
-0.035679
-0.039239
-0.042845
-0.046495
-0.05019
-0.053929
-0.057711
-0.061536
-0.065403
-0.069312
-0.073262
-0.077254
-0.081285
-0.085355
-0.089465
-0.093613
-0.097798
-0.10202
-0.10628
-0.11057
-0.1149
-0.11926
-0.12366
-0.12808
-0.13254
-0.13703
-0.14155
-0.14609
-0.15066
-0.15526
-0.15988
-0.16453
-0.1692
-0.17389
-0.1786
-0.18332
-0.18807
-0.19283
-0.1976
-0.20239
-0.20718
-0.21199
-0.2168
-0.22161
-0.22643
-0.23125
-0.23608
-0.2409
-0.24571
-0.25053
-0.25533
-0.26013
-0.26492
-0.26969
-0.27445
-0.2792
-0.28393
-0.28863
-0.29332
-0.29798
-0.30262
-0.30724
-0.31182
-0.31637
-0.32089
-0.32537
-0.32982
-0.33423
-0.3386
-0.34292
-0.3472
-0.35143
-0.35561
-0.35974
-0.36381
-0.36782
-0.37178
-0.37568
-0.37951
-0.38327
-0.38697
-0.39059
-0.39414
-0.39762
-0.40102
-0.40433
-0.40757
-0.41072
-0.41378
-0.41676
-0.41965
-0.42244
-0.42514
-0.42775
-0.43026
-0.43268
-0.435
-0.43721
-0.43933
-0.44135
-0.44326
-0.44507
-0.44677
-0.44837
-0.44987
-0.45125
-0.45253
-0.45371
-0.45477
-0.45573
-0.45658
-0.45732
-0.45795
-0.45847
-0.45889
-0.45919
-0.45939
-0.45948
-0.45946
-0.45933
-0.4591
-0.45876
-0.45831
-0.45776
-0.4571
-0.45634
-0.45548
-0.45451
-0.45344
-0.45227
-0.45099
-0.44962
-0.44815
-0.44657
-0.4449
-0.44314
-0.44127
-0.43931
-0.43726
-0.43511
-0.43287
-0.43054
-0.42812
-0.4256
-0.423
-0.42031
-0.41754
-0.41468
-0.41173
-0.40871
-0.4056
-0.40241
-0.39914
-0.3958
-0.39237
-0.38888
-0.38531
-0.38167
-0.37796
-0.37418
-0.37033
-0.36642
-0.36244
-0.3584
-0.3543
-0.35014
-0.34593
-0.34165
-0.33733
-0.33294
-0.32851
-0.32402
-0.31949
-0.3149
-0.31027
-0.3056
-0.30087
-0.29611
-0.2913
-0.28645
-0.28156
-0.27663
-0.27166
-0.26666
-0.26162
-0.25654
-0.25144
-0.2463
-0.24113
-0.23592
-0.23069
-0.22544
-0.22015
-0.21484
-0.20951
-0.20415
-0.19877
-0.19337
-0.18795
-0.18252
-0.17707
-0.1716
-0.16611
-0.16062
-0.15511
-0.14959
-0.14406
-0.13853
-0.13298
-0.12743
-0.12187
-0.1163
-0.11073
-0.10516
-0.099582
-0.094001
-0.088418
-0.082833
-0.077247
-0.07166
-0.066072
-0.060485
-0.054899
-0.049314
-0.043731
-0.03815
-0.032571
-0.026996
-0.021424
-0.015856
-0.010293
-0.0047347
0.00081811
0.0063649
0.011905
0.017438
0.022964
0.028481
0.033989
0.039488
0.044976
0.050454
0.055919
0.061373
0.066812
0.072238
0.077648
0.083042
0.088418
0.093776
0.099115
0.10443
0.10973
0.115
0.12025
0.12547
0.13067
0.13583
0.14097
0.14607
0.15114
0.15617
0.16116
0.16612
0.17103
0.1759
0.18073
0.18552
0.19025
0.19494
0.19958
0.20417
0.20871
0.21319
0.21762
0.222
0.22632
0.23058
0.23479
0.23893
0.24302
0.24705
0.25101
0.25491
0.25875
0.26253
0.26624
0.26989
0.27347
0.27699
0.28044
0.28382
0.28714
0.29039
0.29358
0.2967
0.29975
0.30273
0.30565
0.3085
0.31128
0.314
0.31664
0.31922
0.32174
0.32419
0.32657
0.32888
0.33113
0.33331
0.33543
0.33748
0.33947
0.34139
0.34325
0.34504
0.34678
0.34844
0.35005
0.35159
0.35307
0.35449
0.35585
0.35715
0.35839
0.35956
0.36068
0.36174
0.36274
0.36368
0.36457
0.3654
0.36617
0.36689
0.36755
0.36815
0.36871
0.3692
0.36965
0.37004
0.37038
0.37066
0.3709
0.37108
0.37121
0.3713
0.37133
0.37131
0.37125
0.37114
0.37097
0.37077
0.37051
0.37021
0.36986
0.36946
0.36902
0.36854
0.36801
0.36743
0.36681
0.36615
0.36544
0.3647
0.3639
0.36307
0.36219
0.36128
0.36032
0.35932
0.35828
0.3572
0.35609
0.35493
0.35373
0.3525
0.35123
0.34992
0.34857
0.34719
0.34577
0.34432
0.34283
0.3413
0.33975
0.33816
0.33653
0.33487
0.33319
0.33147
0.32972
0.32794
0.32613
0.32429
0.32242
0.32052
0.3186
0.31665
0.31467
0.31267
0.31065
0.3086
0.30653
0.30443
0.30231
0.30017
0.29801
0.29583
0.29363
0.29141
0.28918
0.28692
0.28465
0.28236
0.28005
0.27773
0.2754
0.27305
0.27068
0.2683
0.26591
0.26351
0.26109
0.25866
0.25623
0.25378
0.25132
0.24885
0.24637
0.24389
0.24139
0.23889
0.23639
0.23387
0.23135
0.22883
0.2263
0.22377
0.22123
0.21869
0.21615
0.21361
0.21107
0.20852
0.20598
0.20344
0.2009
0.19835
0.19581
0.19328
0.19074
0.18821
0.18568
0.18315
0.18063
0.17811
0.1756
0.17308
0.17058
0.16807
0.16557
0.16308
0.16059
0.1581
0.15562
0.15314
0.15067
0.1482
0.14574
0.14328
0.14082
0.13837
0.13593
0.13349
0.13105
0.12862
0.12619
0.12377
0.12135
0.11893
0.11652
0.11412
0.11171
0.10932
0.10692
0.10453
0.10214
0.09976
0.09738
0.095003
0.09263
0.090259
0.087892
0.085527
0.083165
0.080805
0.078447
0.076092
0.073738
0.071387
0.069037
0.066688
0.064341
0.061995
0.05965
0.057306
0.054963
0.05262
0.050279
0.047938
0.045597
0.043258
0.040918
0.038579
0.036241
0.033903
0.031566
0.029229
0.026893
0.024558
0.022224
0.019891
0.01756
0.015229
0.0129
0.010572
0.008245
0.0059196
0.0035954
0.0012723
-0.0010497
-0.0033707
-0.0056909
-0.0080104
-0.010329
-0.012648
-0.014966
-0.017285
-0.019603
-0.021922
-0.024242
-0.026562
-0.028883
-0.031206
-0.03353
-0.035856
-0.038184
-0.040514
-0.042847
-0.045183
-0.047521
-0.049863
-0.052208
-0.054557
-0.056909
-0.059266
-0.061628
-0.063993
-0.066364
-0.068739
-0.07112
-0.073505
-0.075897
-0.078293
-0.080696
-0.083104
-0.085519
-0.08794
-0.090367
-0.092801
-0.095242
-0.09769
-0.10015
-0.10261
-0.10508
-0.10755
-0.11004
-0.11253
-0.11503
-0.11754
-0.12006
-0.12258
-0.12511
-0.12765
-0.1302
-0.13275
-0.13532
-0.13789
-0.14046
-0.14305
-0.14564
-0.14824
-0.15085
-0.15346
-0.15607
-0.1587
-0.16132
-0.16395
-0.16659
-0.16923
-0.17187
-0.17452
-0.17716
-0.17981
-0.18246
-0.18511
-0.18776
-0.1904
-0.19305
-0.1957
-0.19834
-0.20098
-0.20361
-0.20625
-0.20888
-0.2115
-0.21412
-0.21674
-0.21934
-0.22195
-0.22454
-0.22713
-0.22971
-0.23228
-0.23485
-0.2374
-0.23995
-0.24249
-0.24501
-0.24753
-0.25003
-0.25252
-0.255
-0.25746
-0.25992
-0.26235
-0.26477
-0.26718
-0.26957
-0.27194
-0.2743
-0.27664
-0.27895
-0.28125
-0.28353
-0.28578
-0.28802
-0.29023
-0.29242
-0.29458
-0.29672
-0.29884
-0.30092
-0.30299
-0.30502
-0.30702
-0.309
-0.31095
-0.31287
-0.31475
-0.31661
-0.31843
-0.32022
-0.32197
-0.3237
-0.32538
-0.32703
-0.32864
-0.33022
-0.33175
-0.33325
-0.3347
-0.33612
-0.33749
-0.33882
-0.34011
-0.34135
-0.34254
-0.34369
-0.34479
-0.34585
-0.34685
-0.3478
-0.3487
-0.34955
-0.35035
-0.35109
-0.35177
-0.3524
-0.35298
-0.35349
-0.35395
-0.35435
-0.35469
-0.35496
-0.35518
-0.35534
-0.35543
-0.35545
-0.35542
-0.35532
-0.35515
-0.35492
-0.35462
-0.35426
-0.35383
-0.35333
-0.35276
-0.35212
-0.35141
-0.35064
-0.34979
-0.34887
-0.34788
-0.34682
-0.34569
-0.34449
-0.34322
-0.34187
-0.34045
-0.33896
-0.33739
-0.33575
-0.33404
-0.33225
-0.3304
-0.32846
-0.32646
-0.32438
-0.32223
-0.32
-0.31771
-0.31533
-0.31289
-0.31037
-0.30778
-0.30512
-0.30239
-0.29959
-0.29671
-0.29377
-0.29075
-0.28766
-0.28451
-0.28129
-0.278
-0.27464
-0.27121
-0.26772
-0.26417
-0.26055
-0.25686
-0.25312
-0.24931
-0.24544
-0.24152
-0.23753
-0.23349
-0.2294
-0.22524
-0.22104
-0.21678
-0.21248
-0.20812
-0.20372
-0.19927
-0.19478
-0.19024
-0.18566
-0.18104
-0.17638
-0.17168
-0.16694
-0.16217
-0.15736
-0.15252
-0.14764
-0.14274
-0.1378
-0.13284
-0.12785
-0.12283
-0.11779
-0.11273
-0.10765
-0.10254
-0.097414
-0.092272
-0.087112
-0.081938
-0.076751
-0.071551
-0.066341
-0.061121
-0.055894
-0.050661
-0.045424
-0.040184
-0.034942
-0.029701
-0.024462
-0.019227
-0.013998
-0.0087756
-0.003562
0.0016413
0.0068329
0.012011
0.017175
0.022322
0.027452
0.032562
0.037653
0.042721
0.047767
0.052789
0.057784
0.062753
0.067694
0.072606
0.077487
0.082336
0.087153
0.091935
0.096682
0.10139
0.10607
0.1107
0.1153
0.11985
0.12436
0.12883
0.13325
0.13763
0.14196
0.14624
0.15048
0.15466
0.15879
0.16287
0.16689
0.17086
0.17478
0.17863
0.18243
0.18617
0.18984
0.19346
0.19701
0.20051
0.20393
0.20729
0.21059
0.21382
0.21698
0.22008
0.2231
0.22606
0.22895
0.23177
0.23452
0.2372
0.2398
0.24234
0.2448
0.24719
0.24951
0.25175
0.25392
0.25602
0.25804
0.25999
0.26187
0.26367
0.26539
0.26705
0.26862
0.27012
0.27155
0.2729
0.27417
0.27537
0.2765
0.27755
0.27852
0.27942
0.28025
0.281
0.28168
0.28228
0.28281
0.28326
0.28364
0.28395
0.28418
0.28435
0.28444
0.28446
0.2844
0.28428
0.28409
0.28383
0.2835
0.2831
0.28264
0.2821
0.28151
0.28084
0.28011
0.27932
0.27847
0.27755
0.27657
0.27554
0.27444
0.27328
0.27207
0.2708
0.26948
0.2681
0.26667
0.26519
0.26365
0.26207
0.26044
0.25877
0.25704
0.25528
0.25347
0.25162
0.24973
0.24781
0.24584
0.24384
0.24181
0.23975
0.23765
0.23553
0.23338
0.2312
0.22899
0.22677
0.22452
0.22225
0.21997
0.21766
0.21534
0.21301
0.21066
0.20831
0.20594
0.20356
0.20118
0.19879
0.1964
0.19401
0.19161
0.18922
0.18683
0.18444
0.18206
0.17968
0.17732
0.17496
0.17262
0.17028
0.16797
0.16566
0.16338
0.16111
0.15886
0.15664
0.15443
0.15224
0.15008
0.14795
0.14584
0.14375
0.14169
0.13966
0.13766
0.13569
0.13375
0.13183
0.12995
0.12811
0.12629
0.12451
0.12276
0.12105
0.11937
0.11772
0.11611
0.11454
0.11301
0.11151
0.11004
0.10862
0.10723
0.10589
0.10458
0.1033
0.10207
0.10088
0.099726
0.098611
0.097536
0.0965
0.095504
0.094548
0.09363
0.092752
0.091912
0.091112
0.09035
0.089626
0.088941
0.088293
0.087682
0.087109
0.086572
0.086072
0.085607
0.085178
0.084783
0.084423
0.084097
0.083803
0.083543
0.083314
0.083117
0.082951
0.082815
0.082708
0.082631
0.082581
0.082559
0.082564
0.082594
0.08265
0.082731
0.082836
0.082963
0.083113
0.083285
0.083477
0.083689
0.083921
0.084171
0.084439
0.084724
0.085025
0.085342
0.085673
0.086018
0.086377
0.086747
0.087129
0.087522
0.087926
0.088338
0.088759
0.089188
0.089625
0.090067
0.090516
0.09097
0.091428
0.09189
0.092355
0.092823
0.093292
0.093763
0.094234
0.094706
0.095177
0.095647
0.096115
0.096582
0.097045
0.097506
0.097963
0.098416
0.098865
0.099309
0.099747
0.10018
0.10061
0.10102
0.10144
0.10184
0.10224
0.10262
0.103
0.10337
0.10373
0.10408
0.10441
0.10474
0.10505
0.10535
0.10564
0.10592
0.10618
0.10643
0.10667
0.10689
0.10709
0.10728
0.10746
0.10761
0.10776
0.10788
0.10799
0.10808
0.10816
0.10821
0.10825
0.10827
0.10827
0.10825
0.10822
0.10816
0.10809
0.10799
0.10788
0.10774
0.10759
0.10741
0.10721
0.10699
0.10675
0.10649
0.10621
0.1059
0.10557
0.10521
0.10484
0.10443
0.10401
0.10356
0.10308
0.10258
0.10205
0.1015
0.10092
0.10031
0.099673
0.09901
0.098319
0.0976
0.096851
0.096074
0.095267
0.09443
0.093562
0.092665
0.091736
0.090776
0.089784
0.088761
0.087706
0.086618
0.085498
0.084344
0.083157
0.081937
0.080682
0.079392
0.078068
0.076708
0.075312
0.07388
0.072412
0.070906
0.069362
0.06778
0.06616
0.064501
0.062802
0.061062
0.059283
0.057462
0.0556
0.053696
0.051749
0.049759
0.047726
0.04565
0.043529
0.041363
0.039152
0.036896
0.034594
0.032246
0.029851
0.02741
0.024921
0.022385
0.019802
0.01717
0.014491
0.011764
0.0089882
0.006164
0.0032912
0.00036969
-0.0026007
-0.0056201
-0.0086885
-0.011806
-0.014973
-0.018189
-0.021454
-0.024768
-0.028132
-0.031545
-0.035006
-0.038517
-0.042076
-0.045684
-0.049339
-0.053043
-0.056795
-0.060593
-0.064439
-0.068331
-0.072268
-0.076252
-0.080279
-0.084351
-0.088467
-0.092624
-0.096824
-0.10106
-0.10534
-0.10966
-0.11402
-0.11842
-0.12284
-0.12731
-0.13181
-0.13633
-0.14089
-0.14548
-0.1501
-0.15474
-0.1594
-0.1641
-0.16881
-0.17354
-0.1783
-0.18307
-0.18786
-0.19267
-0.19749
-0.20233
-0.20718
-0.21203
-0.2169
-0.22178
-0.22666
-0.23155
-0.23644
-0.24134
-0.24624
-0.25113
-0.25603
-0.26092
-0.26581
-0.27069
-0.27556
-0.28042
-0.28527
-0.29011
-0.29493
-0.29974
-0.30453
-0.30929
-0.31404
-0.31876
-0.32345
-0.32812
-0.33276
-0.33736
-0.34193
-0.34647
-0.35096
-0.35542
-0.35984
-0.36421
-0.36854
-0.37282
-0.37705
-0.38123
-0.38536
-0.38943
-0.39345
-0.39741
-0.40131
-0.40515
-0.40893
-0.41264
-0.41628
-0.41986
-0.42336
-0.42679
-0.43015
-0.43344
-0.43664
-0.43977
-0.44282
-0.44578
-0.44866
-0.45145
-0.45416
-0.45677
-0.45929
-0.46172
-0.46405
-0.46629
-0.46843
-0.47046
-0.4724
-0.47422
-0.47595
-0.47756
-0.47907
-0.48047
-0.48175
-0.48292
-0.48398
-0.48492
-0.48575
-0.48646
-0.48705
-0.48752
-0.48787
-0.4881
-0.4882
-0.48819
-0.48805
-0.48779
-0.4874
-0.48689
-0.48626
-0.48549
-0.48461
-0.4836
-0.48246
-0.48119
-0.47981
-0.47829
-0.47665
-0.47489
-0.473
-0.47098
-0.46885
-0.46659
-0.46421
-0.4617
-0.45908
-0.45633
-0.45347
-0.45048
-0.44738
-0.44416
-0.44083
-0.43738
-0.43382
-0.43015
-0.42637
-0.42247
-0.41847
-0.41436
-0.41014
-0.40582
-0.40139
-0.39686
-0.39223
-0.3875
-0.38267
-0.37775
-0.37273
-0.36761
-0.36241
-0.35712
-0.35174
-0.34627
-0.34072
-0.33509
-0.32937
-0.32358
-0.31772
-0.31178
-0.30577
-0.29969
-0.29355
-0.28734
-0.28108
-0.27475
-0.26837
-0.26194
-0.25546
-0.24893
-0.24236
-0.23574
-0.22909
-0.2224
-0.21567
-0.20891
-0.20213
-0.19531
-0.18847
-0.18161
-0.17473
-0.16783
-0.16091
-0.15398
-0.14704
-0.14009
-0.13313
-0.12617
-0.1192
-0.11223
-0.10526
-0.098298
-0.091339
-0.084387
-0.077444
-0.070513
-0.063596
-0.056694
-0.049809
-0.042945
-0.036102
-0.029284
-0.022492
-0.015728
-0.0089952
-0.0022951
0.0043698
0.010997
0.017586
0.024132
0.030636
0.037094
0.043505
0.049868
0.05618
0.062441
0.068648
0.0748
0.080896
0.086934
0.092914
0.098834
0.10469
0.11049
0.11622
0.12189
0.1275
0.13304
0.13851
0.14391
0.14925
0.15452
0.15971
0.16484
0.1699
0.17488
0.17979
0.18463
0.1894
0.19409
0.19871
0.20325
0.20772
0.21211
0.21642
0.22066
0.22482
0.2289
0.2329
0.23683
0.24068
0.24445
0.24813
0.25174
0.25528
0.25873
0.2621
0.26539
0.26861
0.27174
0.2748
0.27777
0.28067
0.28349
0.28624
0.2889
0.29149
0.294
0.29643
0.29879
0.30107
0.30327
0.3054
0.30746
0.30944
0.31134
0.31318
0.31494
0.31663
0.31824
0.31979
0.32126
0.32266
0.32399
0.32526
0.32645
0.32758
0.32864
0.32963
0.33055
0.33141
0.3322
0.33293
0.33359
0.33419
0.33473
0.3352
0.33562
0.33597
0.33627
0.33651
0.33669
0.33681
0.33688
0.33689
0.33685
0.33676
0.33661
0.33642
0.33618
0.33588
0.33554
0.33516
0.33473
0.33425
0.33374
0.33318
0.33258
0.33195
0.33127
0.33056
0.32981
0.32903
0.32822
0.32738
0.3265
0.3256
0.32467
0.32371
0.32273
0.32173
0.3207
0.31965
0.31859
0.3175
0.3164
0.31528
0.31415
0.313
0.31184
0.31067
0.30949
0.3083
0.3071
0.30589
0.30468
0.30347
0.30225
0.30103
0.29981
0.29859
0.29737
0.29615
0.29494
0.29373
0.29252
0.29132
0.29013
0.28894
0.28776
0.2866
0.28544
0.2843
0.28316
0.28204
0.28094
0.27985
0.27878
0.27772
0.27668
0.27566
0.27465
0.27367
0.2727
0.27176
0.27083
0.26993
0.26905
0.26819
0.26735
0.26653
0.26573
0.26496
0.26421
0.26348
0.26278
0.2621
0.26144
0.2608
0.26018
0.25959
0.25901
0.25846
0.25793
0.25742
0.25693
0.25646
0.256
0.25557
0.25515
0.25475
0.25437
0.25401
0.25366
0.25332
0.253
0.25269
0.25239
0.2521
0.25183
0.25156
0.2513
0.25105
0.25081
0.25058
0.25034
0.25012
0.2499
0.24968
0.24946
0.24924
0.24902
0.24881
0.24859
0.24837
0.24814
0.24792
0.24768
0.24744
0.2472
0.24695
0.24669
0.24642
0.24614
0.24585
0.24556
0.24524
0.24492
0.24458
0.24423
0.24387
0.24349
0.24309
0.24268
0.24225
0.2418
0.24133
0.24085
0.24034
0.23982
0.23927
0.2387
0.23811
0.2375
0.23686
0.2362
0.23552
0.23481
0.23407
0.23331
0.23252
0.2317
0.23085
0.22998
0.22907
0.22814
0.22717
0.22618
0.22515
0.22409
0.22299
0.22187
0.2207
0.21951
0.21828
0.21701
0.21571
0.21437
0.213
0.21159
0.21014
0.20865
0.20713
0.20556
0.20396
0.20232
0.20063
0.19891
0.19715
0.19535
0.19351
0.19162
0.1897
0.18773
0.18573
0.18368
0.18159
0.17945
0.17728
0.17506
0.17279
0.17049
0.16814
0.16575
0.16331
0.16083
0.15831
0.15574
0.15312
0.15047
0.14776
0.14502
0.14223
0.13939
0.13651
0.13359
0.13062
0.12761
0.12455
0.12145
0.11831
0.11512
0.11189
0.10862
0.1053
0.10195
0.098549
0.09511
0.09163
0.08811
0.08455
0.08095
0.077312
0.073635
0.06992
0.066167
0.062377
0.058549
0.054685
0.050785
0.046849
0.042877
0.03887
0.034829
0.030754
0.026645
0.022503
0.018328
0.014121
0.0098829
0.0056132
0.001313
-0.0030172
-0.0073767
-0.011765
-0.016181
-0.020624
-0.025094
-0.02959
-0.034111
-0.038656
-0.043224
-0.047815
-0.052427
-0.057059
-0.061711
-0.066381
-0.071068
-0.075771
-0.08049
-0.085224
-0.08997
-0.09473
-0.099502
-0.10428
-0.10908
-0.11388
-0.11869
-0.12351
-0.12834
-0.13318
-0.13802
-0.14287
-0.14773
-0.15259
-0.15745
-0.16232
-0.1672
-0.17208
-0.17696
-0.18185
-0.18673
-0.19162
-0.19652
-0.20141
-0.20631
-0.2112
-0.2161
-0.22099
-0.22589
-0.23079
-0.23568
-0.24057
-0.24547
-0.25035
-0.25524
-0.26012
-0.265
-0.26987
-0.27474
-0.2796
-0.28446
-0.28931
-0.29415
-0.29899
-0.30382
-0.30864
-0.31345
-0.31825
-0.32304
-0.32782
-0.33259
-0.33735
-0.3421
-0.34683
-0.35155
-0.35626
-0.36095
-0.36563
-0.37029
-0.37494
-0.37957
-0.38418
-0.38877
-0.39335
-0.3979
-0.40243
-0.40694
-0.41142
-0.41588
-0.42032
-0.42473
-0.42911
-0.43346
-0.43778
-0.44207
-0.44632
-0.45054
-0.45472
-0.45887
-0.46298
-0.46704
-0.47107
-0.47505
-0.47899
-0.48288
-0.48672
-0.49052
-0.49426
-0.49795
-0.50159
-0.50518
-0.50871
-0.51219
-0.5156
-0.51896
-0.52225
-0.52549
-0.52866
-0.53176
-0.5348
-0.53777
-0.54067
-0.5435
-0.54625
-0.54893
-0.55154
-0.55407
-0.55652
-0.5589
-0.56119
-0.5634
-0.56552
-0.56756
-0.5695
-0.57136
-0.57313
-0.57481
-0.57639
-0.57788
-0.57927
-0.58056
-0.58174
-0.58283
-0.58382
-0.5847
-0.58547
-0.58614
-0.58669
-0.58714
-0.58747
-0.5877
-0.5878
-0.5878
-0.58767
-0.58743
-0.58707
-0.58659
-0.58599
-0.58527
-0.58442
-0.58345
-0.58235
-0.58113
-0.57978
-0.57831
-0.57671
-0.57497
-0.57311
-0.57112
-0.56899
-0.56673
-0.56435
-0.56182
-0.55917
-0.55638
-0.55346
-0.5504
-0.54721
-0.54388
-0.54042
-0.53682
-0.53309
-0.52923
-0.52523
-0.52109
-0.51682
-0.51241
-0.50788
-0.5032
-0.4984
-0.49346
-0.48839
-0.48319
-0.47786
-0.4724
-0.46681
-0.46109
-0.45525
-0.44928
-0.44319
-0.43698
-0.43064
-0.42419
-0.41762
-0.41093
-0.40413
-0.39721
-0.39019
-0.38306
-0.37582
-0.36848
-0.36104
-0.3535
-0.34587
-0.33815
-0.33033
-0.32243
-0.31444
-0.30638
-0.29823
-0.29001
-0.28172
-0.27336
-0.26494
-0.25645
-0.2479
-0.23929
-0.23063
-0.22192
-0.21316
-0.20435
-0.1955
-0.18661
-0.17768
-0.16871
-0.15972
-0.15069
-0.14164
-0.13257
-0.12348
-0.11437
-0.10524
-0.096107
-0.086965
-0.077818
-0.06867
-0.059523
-0.050382
-0.041249
-0.032127
-0.023021
-0.013933
-0.0048668
0.0041739
0.013185
0.022165
0.031107
0.040011
0.048871
0.057685
0.06645
0.075163
0.08382
0.092419
0.10096
0.10943
0.11784
0.12618
0.13445
0.14265
0.15077
0.15881
0.16678
0.17466
0.18246
0.19018
0.19781
0.20535
0.21281
0.22017
0.22744
0.23461
0.2417
0.24868
0.25557
0.26236
0.26905
0.27563
0.28212
0.28851
0.29479
0.30096
0.30704
0.313
0.31886
0.32462
0.33026
0.3358
0.34122
0.34654
0.35175
0.35685
0.36184
0.36671
0.37148
0.37614
0.38068
0.38511
0.38944
0.39365
0.39775
0.40175
0.40563
0.4094
0.41307
0.41662
0.42007
0.42341
0.42664
0.42976
0.43278
0.43569
0.4385
0.4412
0.4438
0.4463
0.44869
0.45098
0.45317
0.45526
0.45725
0.45914
0.46094
0.46263
0.46424
0.46574
0.46715
0.46847
0.46969
0.47082
0.47186
0.47281
0.47367
0.47445
0.47513
0.47573
0.47624
0.47667
0.47701
0.47727
0.47745
0.47755
0.47756
0.4775
0.47736
0.47714
0.47684
0.47647
0.47602
0.4755
0.4749
0.47423
0.47349
0.47268
0.4718
0.47085
0.46983
0.46875
0.4676
0.46638
0.4651
0.46375
0.46235
0.46088
0.45935
0.45776
0.45611
0.4544
0.45264
0.45082
0.44894
0.44701
0.44503
0.44299
0.4409
0.43876
0.43658
0.43434
0.43206
0.42973
0.42736
0.42494
0.42248
0.41998
0.41744
0.41486
0.41224
0.40958
0.40689
0.40417
0.40141
0.39862
0.39581
0.39296
0.39009
0.38719
0.38426
0.38132
0.37835
0.37537
0.37236
0.36935
0.36631
0.36327
0.36022
0.35715
0.35408
0.35101
0.34793
0.34485
0.34177
0.3387
0.33562
0.33256
0.3295
0.32645
0.3234
0.32037
0.31736
0.31435
0.31136
0.30839
0.30543
0.3025
0.29958
0.29669
0.29382
0.29097
0.28814
0.28534
0.28257
0.27982
0.2771
0.27441
0.27176
0.26913
0.26653
0.26397
0.26144
0.25894
0.25648
0.25405
0.25166
0.24931
0.247
0.24472
0.24248
0.24029
0.23813
0.23602
0.23394
0.23191
0.22993
0.22798
0.22608
0.22422
0.2224
0.22063
0.2189
0.21721
0.21556
0.21396
0.21241
0.21089
0.20942
0.20799
0.2066
0.20525
0.20395
0.20268
0.20146
0.20027
0.19912
0.19802
0.19695
0.19591
0.19492
0.19396
0.19304
0.19215
0.19129
0.19047
0.18968
0.18892
0.18819
0.18749
0.18682
0.18618
0.18557
0.18499
0.18442
0.18389
0.18338
0.18289
0.18242
0.18197
0.18155
0.18114
0.18075
0.18038
0.18002
0.17967
0.17935
0.17903
0.17872
0.17843
0.17815
0.17787
0.1776
0.17734
0.17708
0.17683
0.17658
0.17633
0.17609
0.17584
0.1756
0.17535
0.1751
0.17485
0.17459
0.17433
0.17406
0.17378
0.1735
0.1732
0.1729
0.17259
0.17227
0.17193
0.17159
0.17123
0.17085
0.17046
0.17005
0.16963
0.16919
0.16873
0.16825
0.16775
0.16723
0.16669
0.16613
0.16554
0.16493
0.16429
0.16363
0.16294
0.16222
0.16147
0.1607
0.1599
0.15906
0.1582
0.1573
0.15637
0.1554
0.15441
0.15338
0.15231
0.15121
0.15007
0.14889
0.14768
0.14642
0.14513
0.14381
0.14244
0.14103
0.13958
0.13809
0.13656
0.13499
0.13338
0.13172
0.13002
0.12827
0.12648
0.12465
0.12276
0.12084
0.11886
0.11684
0.11476
0.11264
0.11047
0.10825
0.10597
0.10365
0.10127
0.09884
0.096356
0.093818
0.091225
0.088576
0.085872
0.083111
0.080293
0.077419
0.074486
0.071495
0.068446
0.065337
0.06217
0.058943
0.055656
0.052309
0.048901
0.045433
0.041905
0.038315
0.034664
0.030952
0.027178
0.023342
0.019444
0.015483
0.011461
0.0073753
0.0032271
-0.00098383
-0.0052578
-0.0095947
-0.013995
-0.018458
-0.022984
-0.027573
-0.032225
-0.03694
-0.041718
-0.046557
-0.051459
-0.056423
-0.061449
-0.066535
-0.071682
-0.07689
-0.082156
-0.087482
-0.092866
-0.098308
-0.10381
-0.10936
-0.11497
-0.12063
-0.12635
-0.13211
-0.13793
-0.1438
-0.14971
-0.15567
-0.16168
-0.16773
-0.17383
-0.17997
-0.18615
-0.19237
-0.19864
-0.20494
-0.21128
-0.21766
-0.22408
-0.23053
-0.23702
-0.24354
-0.25009
-0.25668
-0.26329
-0.26994
-0.27662
-0.28332
-0.29006
-0.29681
-0.3036
-0.31041
-0.31724
-0.32409
-0.33097
-0.33786
-0.34477
-0.3517
-0.35865
-0.36561
-0.37258
-0.37956
-0.38655
-0.39355
-0.40056
-0.40757
-0.41458
-0.4216
-0.42861
-0.43562
-0.44263
-0.44963
-0.45663
-0.46361
-0.47059
-0.47755
-0.4845
-0.49143
-0.49834
-0.50523
-0.5121
-0.51895
-0.52577
-0.53256
-0.53932
-0.54605
-0.55274
-0.5594
-0.56601
-0.57259
-0.57911
-0.5856
-0.59203
-0.59841
-0.60474
-0.611
-0.61721
-0.62336
-0.62944
-0.63544
-0.64138
-0.64724
-0.65303
-0.65873
-0.66434
-0.66987
-0.67531
-0.68065
-0.68589
-0.69104
-0.69608
-0.70101
-0.70583
-0.71054
-0.71513
-0.7196
-0.72395
-0.72817
-0.73227
-0.73623
-0.74006
-0.74375
-0.74731
-0.75072
-0.75398
-0.75709
-0.76005
-0.76286
-0.76551
-0.768
-0.77033
-0.77249
-0.77448
-0.77631
-0.77796
-0.77943
-0.78073
-0.78184
-0.78277
-0.78352
-0.78408
-0.78445
-0.78463
-0.78462
-0.78442
-0.78402
-0.78342
-0.78262
-0.78163
-0.78044
-0.77904
-0.77745
-0.77565
-0.77365
-0.77144
-0.76903
-0.76642
-0.7636
-0.76058
-0.75736
-0.75393
-0.7503
-0.74647
-0.74243
-0.7382
-0.73376
-0.72913
-0.7243
-0.71927
-0.71405
-0.70864
-0.70303
-0.69724
-0.69126
-0.68509
-0.67874
-0.67222
-0.66552
-0.65864
-0.6516
-0.64438
-0.63701
-0.62947
-0.62178
-0.61393
-0.60594
-0.5978
-0.58952
-0.5811
-0.57255
-0.56387
-0.55507
-0.54614
-0.53709
-0.52793
-0.51866
-0.50928
-0.4998
-0.49022
-0.48055
-0.47079
-0.46094
-0.451
-0.44099
-0.4309
-0.42075
-0.41052
-0.40024
-0.3899
-0.3795
-0.36906
-0.35857
-0.34805
-0.33749
-0.32689
-0.31627
-0.30563
-0.29498
-0.2843
-0.27362
-0.26293
-0.25224
-0.24155
-0.23086
-0.22018
-0.20952
-0.19886
-0.18822
-0.1776
-0.16701
-0.15644
-0.14589
-0.13538
-0.1249
-0.11446
-0.10405
-0.093683
-0.083358
-0.073079
-0.062845
-0.052661
-0.042528
-0.032447
-0.022421
-0.012453
-0.0025427
0.0073063
0.017093
0.026814
0.036469
0.046056
0.055573
0.065017
0.074387
0.083681
0.092898
0.10204
0.11109
0.12007
0.12896
0.13777
0.14649
0.15512
0.16367
0.17213
0.18051
0.18879
0.19698
0.20508
0.2131
0.22102
0.22884
0.23658
0.24423
0.25178
0.25924
0.26661
0.27388
0.28106
0.28815
0.29515
0.30205
0.30886
0.31558
0.32221
0.32874
0.33518
0.34152
0.34778
0.35393
0.36
0.36597
0.37185
0.37764
0.38333
0.38893
0.39444
0.39985
0.40517
0.4104
0.41553
0.42057
0.42552
0.43038
0.43514
0.43981
0.4444
0.44889
0.45329
0.45761
0.46183
0.46597
0.47002
0.47398
0.47786
0.48165
0.48535
0.48897
0.49251
0.49596
0.49933
0.50261
0.50582
0.50894
0.51198
0.51494
0.51782
0.52062
0.52335
0.52599
0.52855
0.53104
0.53345
0.53578
0.53803
0.54021
0.54231
0.54433
0.54628
0.54815
0.54994
0.55166
0.55331
0.55488
0.55638
0.55781
0.55916
0.56045
0.56166
0.5628
0.56387
0.56487
0.5658
0.56667
0.56746
0.56819
0.56886
0.56945
0.56999
0.57046
0.57086
0.5712
0.57148
0.57169
0.57185
0.57194
0.57197
0.57195
0.57186
0.57172
0.57151
0.57125
0.57093
0.57056
0.57013
0.56964
0.5691
0.56851
0.56786
0.56715
0.5664
0.56559
0.56473
0.56382
0.56286
0.56184
0.56078
0.55967
0.55851
0.5573
0.55605
0.55474
0.55339
0.552
0.55056
0.54907
0.54754
0.54597
0.54436
0.5427
0.541
0.53925
0.53747
0.53565
0.53378
0.53188
0.52994
0.52795
0.52594
0.52388
0.52179
0.51966
0.51749
0.51529
0.51306
0.51079
0.50849
0.50615
0.50379
0.50139
0.49896
0.4965
0.494
0.49148
0.48893
0.48635
0.48375
0.48111
0.47845
0.47577
0.47306
0.47032
0.46756
0.46477
0.46197
0.45914
0.45628
0.45341
0.45052
0.44761
0.44467
0.44172
0.43876
0.43577
0.43277
0.42976
0.42672
0.42368
0.42062
0.41755
0.41447
0.41138
0.40827
0.40516
0.40204
0.39891
0.39578
0.39263
0.38949
0.38634
0.38318
0.38002
0.37685
0.37369
0.37052
0.36735
0.36417
0.361
0.35782
0.35465
0.35147
0.3483
0.34512
0.34194
0.33877
0.3356
0.33242
0.32925
0.32608
0.32291
0.31974
0.31657
0.3134
0.31024
0.30707
0.30391
0.30074
0.29758
0.29442
0.29125
0.28809
0.28493
0.28176
0.2786
0.27543
0.27227
0.2691
0.26593
0.26276
0.25959
0.25641
0.25323
0.25005
0.24686
0.24367
0.24048
0.23728
0.23407
0.23086
0.22764
0.22442
0.22119
0.21795
0.2147
0.21144
0.20817
0.20489
0.2016
0.1983
0.19499
0.19166
0.18832
0.18496
0.18159
0.1782
0.1748
0.17138
0.16793
0.16447
0.16099
0.15749
0.15396
0.15042
0.14685
0.14325
0.13964
0.13599
0.13232
0.12862
0.1249
0.12114
0.11736
0.11355
0.1097
0.10583
0.10192
0.097976
0.094001
0.089991
0.085946
0.081865
0.077748
0.073594
0.069403
0.065173
0.060905
0.056597
0.05225
0.047863
0.043435
0.038967
0.034458
0.029907
0.025315
0.02068
0.016004
0.011286
0.0065255
0.0017228
-0.0031219
-0.0080088
-0.012938
-0.017908
-0.02292
-0.027973
-0.033067
-0.038202
-0.043378
-0.048593
-0.053849
-0.059144
-0.064479
-0.069852
-0.075265
-0.080716
-0.086204
-0.091731
-0.097295
-0.1029
-0.10853
-0.11421
-0.11992
-0.12566
-0.13144
-0.13725
-0.1431
-0.14898
-0.15489
-0.16083
-0.1668
-0.1728
-0.17883
-0.18489
-0.19098
-0.19709
-0.20323
-0.20939
-0.21558
-0.22178
-0.22801
-0.23426
-0.24052
-0.2468
-0.25309
-0.2594
-0.26572
-0.27205
-0.27839
-0.28474
-0.29109
-0.29745
-0.30381
-0.31017
-0.31654
-0.3229
-0.32926
-0.33562
-0.34198
-0.34833
-0.35468
-0.36102
-0.36735
-0.37367
-0.37998
-0.38627
-0.39256
-0.39883
-0.40508
-0.41132
-0.41754
-0.42374
-0.42992
-0.43608
-0.44221
-0.44832
-0.45441
-0.46047
-0.4665
-0.4725
-0.47846
-0.4844
-0.4903
-0.49617
-0.502
-0.50779
-0.51354
-0.51925
-0.52492
-0.53054
-0.53611
-0.54164
-0.54711
-0.55254
-0.55791
-0.56323
-0.56849
-0.57369
-0.57884
-0.58392
-0.58894
-0.59389
-0.59878
-0.6036
-0.60835
-0.61303
-0.61763
-0.62216
-0.62662
-0.63099
-0.63528
-0.63949
-0.64361
-0.64765
-0.6516
-0.65545
-0.65922
-0.66288
-0.66645
-0.66992
-0.67329
-0.67655
-0.67971
-0.68276
-0.68569
-0.68852
-0.69122
-0.69381
-0.69628
-0.69862
-0.70084
-0.70293
-0.7049
-0.70673
-0.70844
-0.71
-0.71144
-0.71273
-0.71389
-0.71491
-0.71578
-0.71652
-0.71711
-0.71755
-0.71785
-0.718
-0.71801
-0.71786
-0.71756
-0.71712
-0.71652
-0.71577
-0.71487
-0.71382
-0.71261
-0.71125
-0.70973
-0.70806
-0.70624
-0.70426
-0.70213
-0.69985
-0.69741
-0.69482
-0.69208
-0.68918
-0.68614
-0.68294
-0.67959
-0.67609
-0.67244
-0.66864
-0.6647
-0.6606
-0.65636
-0.65197
-0.64744
-0.64276
-0.63793
-0.63297
-0.62786
-0.62261
-0.61722
-0.61169
-0.60602
-0.60021
-0.59427
-0.58819
-0.58198
-0.57563
-0.56916
-0.56255
-0.55582
-0.54896
-0.54197
-0.53486
-0.52763
-0.52028
-0.51281
-0.50523
-0.49753
-0.48972
-0.4818
-0.47377
-0.46564
-0.4574
-0.44907
-0.44064
-0.43211
-0.42349
-0.41477
-0.40597
-0.39709
-0.38812
-0.37906
-0.36993
-0.36072
-0.35144
-0.34208
-0.33265
-0.32316
-0.31359
-0.30397
-0.29428
-0.28453
-0.27473
-0.26487
-0.25496
-0.245
-0.23499
-0.22494
-0.21485
-0.20472
-0.19455
-0.18434
-0.17411
-0.16385
-0.15356
-0.14325
-0.13292
-0.12257
-0.11221
-0.10184
-0.091464
-0.081084
-0.070705
-0.060328
-0.049959
-0.039599
-0.029252
-0.018922
-0.0086106
0.0016785
0.011943
0.022179
0.032384
0.042555
0.05269
0.062786
0.07284
0.082849
0.092811
0.10272
0.11258
0.12239
0.13213
0.14182
0.15144
0.161
0.17049
0.17991
0.18925
0.19852
0.20771
0.21682
0.22585
0.23478
0.24363
0.25239
0.26105
0.26962
0.27809
0.28645
0.29471
0.30285
0.31089
0.31881
0.32662
0.3343
0.34187
0.34931
0.35663
0.36381
0.37087
0.3778
0.38459
0.39125
0.39778
0.40417
0.41042
0.41653
0.4225
0.42833
0.43402
0.43956
0.44497
0.45023
0.45534
0.46031
0.46514
0.46983
0.47437
0.47876
0.48302
0.48712
0.49109
0.49491
0.49859
0.50213
0.50552
0.50877
0.51189
0.51486
0.5177
0.52039
0.52295
0.52538
0.52766
0.52982
0.53184
0.53373
0.53548
0.53711
0.53861
0.53998
0.54123
0.54235
0.54335
0.54423
0.54498
0.54561
0.54613
0.54653
0.54682
0.54699
0.54705
0.54699
0.54683
0.54656
0.54619
0.54571
0.54512
0.54444
0.54365
0.54276
0.54178
0.54071
0.53953
0.53827
0.53692
0.53548
0.53395
0.53233
0.53063
0.52885
0.52699
0.52505
0.52303
0.52094
0.51877
0.51653
0.51422
0.51185
0.5094
0.5069
0.50432
0.50169
0.499
0.49625
0.49344
0.49058
0.48767
0.4847
0.48169
0.47862
0.47551
0.47236
0.46916
0.46591
0.46263
0.4593
0.45594
0.45254
0.4491
0.44563
0.44212
0.43859
0.43502
0.43142
0.42779
0.42413
0.42045
0.41675
0.41301
0.40926
0.40548
0.40169
0.39787
0.39404
0.39018
0.38631
0.38243
0.37853
0.37462
0.3707
0.36676
0.36282
0.35886
0.3549
0.35093
0.34696
0.34298
0.339
0.33501
0.33102
0.32703
0.32305
0.31906
0.31507
0.31109
0.30712
0.30315
0.29919
0.29523
0.29129
0.28736
0.28344
0.27953
0.27564
0.27176
0.2679
0.26407
0.26025
0.25645
0.25268
0.24894
0.24522
0.24153
0.23787
0.23425
0.23065
0.22709
0.22356
0.22007
0.21662
0.21321
0.20983
0.2065
0.20321
0.19996
0.19675
0.19358
0.19046
0.18738
0.18435
0.18137
0.17843
0.17553
0.17269
0.16989
0.16714
0.16443
0.16178
0.15917
0.15662
0.15411
0.15165
0.14924
0.14688
0.14457
0.14231
0.1401
0.13794
0.13583
0.13377
0.13176
0.1298
0.12789
0.12603
0.12422
0.12246
0.12074
0.11908
0.11747
0.1159
0.11439
0.11292
0.11149
0.11012
0.10879
0.10751
0.10628
0.10509
0.10394
0.10284
0.10179
0.10078
0.099806
0.098879
0.097993
0.097149
0.096345
0.095581
0.094857
0.094171
0.093524
0.092914
0.092342
0.091806
0.091305
0.09084
0.090409
0.090013
0.08965
0.08932
0.089022
0.088757
0.088522
0.088318
0.088143
0.087998
0.087881
0.087792
0.087729
0.087693
0.087682
0.087695
0.087732
0.087791
0.087872
0.087974
0.088096
0.088237
0.088396
0.088572
0.088764
0.08897
0.089191
0.089425
0.08967
0.089927
0.090193
0.090468
0.090751
0.09104
0.091335
0.091635
0.091938
0.092243
0.092549
0.092856
0.093161
0.093465
0.093765
0.094061
0.094352
0.094636
0.094913
0.095181
0.09544
0.095687
0.095922
0.096144
0.096351
0.096542
0.096715
0.096871
0.097006
0.097121
0.097213
0.097281
0.097324
0.097341
0.09733
0.09729
0.09722
0.097118
0.096982
0.096813
0.096607
0.096364
0.096082
0.095761
0.095398
0.094992
0.094543
0.094048
0.093506
0.092917
0.092279
0.09159
0.090849
0.090056
0.089208
0.088305
0.087346
0.086329
0.085253
0.084118
0.082921
0.081662
0.080339
0.078952
0.077499
0.075979
0.074391
0.072734
0.071006
0.069207
0.067335
0.06539
0.063371
0.061275
0.059103
0.056853
0.054525
0.052118
0.04963
0.047061
0.04441
0.041676
0.038859
0.035958
0.032972
0.029901
0.026744
0.023501
0.020172
0.016755
0.013251
0.0096597
0.0059806
0.0022138
-0.0016407
-0.005583
-0.0096129
-0.01373
-0.017935
-0.022227
-0.026606
-0.031071
-0.035623
-0.040261
-0.044985
-0.049794
-0.054688
-0.059666
-0.064729
-0.069875
-0.075104
-0.080415
-0.085807
-0.09128
-0.096833
-0.10247
-0.10818
-0.11396
-0.11982
-0.12576
-0.13177
-0.13786
-0.14401
-0.15023
-0.15652
-0.16288
-0.1693
-0.17578
-0.18232
-0.18892
-0.19558
-0.20229
-0.20905
-0.21586
-0.22272
-0.22962
-0.23657
-0.24355
-0.25056
-0.25761
-0.26469
-0.2718
-0.27893
-0.28608
-0.29325
-0.30044
-0.30765
-0.31486
-0.32209
-0.32932
-0.33656
-0.34379
-0.35103
-0.35826
-0.36549
-0.37271
-0.37992
-0.38712
-0.39429
-0.40145
-0.40859
-0.41571
-0.42279
-0.42985
-0.43688
-0.44387
-0.45082
-0.45774
-0.46461
-0.47143
-0.47821
-0.48493
-0.4916
-0.49821
-0.50476
-0.51125
-0.51766
-0.52401
-0.53029
-0.53648
-0.5426
-0.54864
-0.55459
-0.56045
-0.56623
-0.5719
-0.57749
-0.58297
-0.58836
-0.59364
-0.59881
-0.60387
-0.60883
-0.61367
-0.61839
-0.623
-0.62748
-0.63185
-0.63608
-0.6402
-0.64418
-0.64803
-0.65174
-0.65533
-0.65877
-0.66207
-0.66524
-0.66826
-0.67113
-0.67385
-0.67643
-0.67886
-0.68113
-0.68324
-0.6852
-0.687
-0.68864
-0.69012
-0.69144
-0.69258
-0.69357
-0.69438
-0.69502
-0.6955
-0.6958
-0.69592
-0.69588
-0.69565
-0.69526
-0.69468
-0.69393
-0.693
-0.69188
-0.69059
-0.68912
-0.68747
-0.68564
-0.68363
-0.68144
-0.67906
-0.67651
-0.67377
-0.67086
-0.66776
-0.66449
-0.66103
-0.6574
-0.65359
-0.6496
-0.64544
-0.6411
-0.63659
-0.63191
-0.62705
-0.62202
-0.61683
-0.61147
-0.60594
-0.60025
-0.5944
-0.58839
-0.58222
-0.57589
-0.56941
-0.56278
-0.556
-0.54907
-0.542
-0.53478
-0.52742
-0.51993
-0.5123
-0.50454
-0.49665
-0.48863
-0.48049
-0.47223
-0.46385
-0.45535
-0.44675
-0.43804
-0.42922
-0.42031
-0.4113
-0.40219
-0.393
-0.38372
-0.37437
-0.36493
-0.35543
-0.34586
-0.33622
-0.32653
-0.31678
-0.30699
-0.29716
-0.28728
-0.27738
-0.26745
-0.25749
-0.24752
-0.23753
-0.22754
-0.21754
-0.20754
-0.19754
-0.18756
-0.17758
-0.16762
-0.15769
-0.14777
-0.13788
-0.12802
-0.1182
-0.10841
-0.098663
-0.088957
-0.079298
-0.069687
-0.060128
-0.050623
-0.041175
-0.031786
-0.022459
-0.013196
-0.0040004
0.0051266
0.014182
0.023165
0.032071
0.0409
0.04965
0.058317
0.066901
0.0754
0.08381
0.092132
0.10036
0.1085
0.11654
0.12449
0.13234
0.14009
0.14774
0.1553
0.16275
0.1701
0.17734
0.18448
0.19152
0.19845
0.20528
0.212
0.21861
0.22512
0.23152
0.23782
0.24401
0.25009
0.25607
0.26193
0.26769
0.27335
0.2789
0.28434
0.28968
0.29491
0.30003
0.30505
0.30996
0.31477
0.31948
0.32408
0.32858
0.33298
0.33727
0.34146
0.34555
0.34954
0.35343
0.35721
0.3609
0.36449
0.36798
0.37137
0.37467
0.37787
0.38097
0.38398
0.3869
0.38973
0.39246
0.3951
0.39766
0.40012
0.4025
0.40479
0.407
0.40912
0.41115
0.41311
0.41498
0.41677
0.41849
0.42012
0.42168
0.42316
0.42457
0.4259
0.42716
0.42835
0.42947
0.43052
0.4315
0.43241
0.43325
0.43403
0.43474
0.43539
0.43598
0.4365
0.43696
0.43737
0.43771
0.438
0.43823
0.4384
0.43852
0.43859
0.4386
0.43856
0.43847
0.43834
0.43815
0.43792
0.43764
0.43732
0.43695
0.43654
0.43609
0.4356
0.43507
0.4345
0.4339
0.43325
0.43258
0.43187
0.43112
0.43035
0.42954
0.42871
0.42784
0.42695
0.42603
0.42509
0.42412
0.42313
0.42212
0.42109
0.42003
0.41896
0.41786
0.41676
0.41563
0.41449
0.41333
0.41216
0.41098
0.40978
0.40858
0.40736
0.40613
0.4049
0.40366
0.40241
0.40115
0.39989
0.39862
0.39735
0.39608
0.3948
0.39352
0.39224
0.39095
0.38967
0.38839
0.38711
0.38583
0.38455
0.38327
0.382
0.38073
0.37946
0.3782
0.37695
0.3757
0.37445
0.37322
0.37198
0.37076
0.36954
0.36833
0.36713
0.36594
0.36476
0.36358
0.36241
0.36125
0.3601
0.35896
0.35783
0.35671
0.35559
0.35448
0.35339
0.3523
0.35121
0.35014
0.34907
0.34802
0.34697
0.34592
0.34488
0.34385
0.34282
0.3418
0.34079
0.33978
0.33877
0.33777
0.33677
0.33577
0.33477
0.33377
0.33278
0.33179
0.33079
0.32979
0.3288
0.32779
0.32679
0.32578
0.32477
0.32375
0.32273
0.3217
0.32066
0.31962
0.31856
0.3175
0.31643
0.31535
0.31425
0.31315
0.31203
0.3109
0.30976
0.3086
0.30743
0.30624
0.30504
0.30382
0.30259
0.30133
0.30006
0.29878
0.29747
0.29614
0.29479
0.29343
0.29204
0.29063
0.2892
0.28775
0.28627
0.28477
0.28325
0.28171
0.28014
0.27855
0.27693
0.27529
0.27362
0.27192
0.2702
0.26845
0.26668
0.26488
0.26304
0.26118
0.25929
0.25738
0.25542
0.25344
0.25143
0.24939
0.24731
0.2452
0.24306
0.24088
0.23867
0.23642
0.23414
0.23182
0.22946
0.22707
0.22464
0.22217
0.21966
0.21712
0.21453
0.2119
0.20924
0.20653
0.20378
0.20099
0.19815
0.19528
0.19236
0.1894
0.18639
0.18334
0.18024
0.1771
0.17392
0.17069
0.16741
0.16409
0.16072
0.15731
0.15384
0.15033
0.14677
0.14317
0.13952
0.13581
0.13206
0.12826
0.12442
0.12052
0.11657
0.11258
0.10854
0.10445
0.10031
0.096117
0.09188
0.087594
0.083261
0.07888
0.074451
0.069976
0.065454
0.060885
0.056271
0.051612
0.046908
0.04216
0.037368
0.032534
0.027657
0.022738
0.017778
0.012776
0.007734
0.0026516
-0.0024705
-0.007632
-0.012833
-0.018072
-0.023349
-0.028665
-0.034018
-0.039408
-0.044835
-0.050298
-0.055798
-0.061333
-0.066903
-0.072508
-0.078148
-0.083822
-0.08953
-0.095271
-0.10104
-0.10685
-0.11269
-0.11856
-0.12445
-0.13038
-0.13634
-0.14233
-0.14834
-0.15439
-0.16045
-0.16655
-0.17267
-0.17881
-0.18498
-0.19117
-0.19738
-0.20361
-0.20986
-0.21613
-0.22242
-0.22873
-0.23505
-0.2414
-0.24776
-0.25413
-0.26053
-0.26693
-0.27336
-0.27979
-0.28624
-0.2927
-0.29918
-0.30567
-0.31216
-0.31867
-0.32519
-0.33172
-0.33826
-0.34481
-0.35137
-0.35793
-0.3645
-0.37107
-0.37765
-0.38424
-0.39083
-0.39742
-0.40401
-0.41061
-0.4172
-0.42379
-0.43038
-0.43697
-0.44355
-0.45013
-0.4567
-0.46326
-0.46981
-0.47635
-0.48288
-0.4894
-0.4959
-0.50239
-0.50886
-0.51531
-0.52174
-0.52815
-0.53453
-0.54089
-0.54723
-0.55353
-0.55981
-0.56605
-0.57226
-0.57843
-0.58456
-0.59066
-0.59671
-0.60272
-0.60868
-0.61459
-0.62045
-0.62626
-0.63201
-0.6377
-0.64333
-0.64889
-0.65439
-0.65982
-0.66517
-0.67045
-0.67565
-0.68077
-0.6858
-0.69075
-0.6956
-0.70036
-0.70502
-0.70958
-0.71403
-0.71839
-0.72263
-0.72676
-0.73078
-0.73468
-0.73846
-0.74212
-0.74566
-0.74907
-0.75234
-0.75549
-0.7585
-0.76137
-0.76411
-0.7667
-0.76915
-0.77145
-0.7736
-0.77561
-0.77745
-0.77915
-0.78068
-0.78206
-0.78328
-0.78433
-0.78521
-0.78593
-0.78648
-0.78686
-0.78706
-0.78709
-0.78695
-0.78662
-0.78612
-0.78544
-0.78457
-0.78352
-0.78229
-0.78087
-0.77926
-0.77746
-0.77548
-0.77331
-0.77095
-0.76839
-0.76565
-0.76272
-0.75959
-0.75627
-0.75277
-0.74907
-0.74518
-0.7411
-0.73683
-0.73237
-0.72772
-0.72288
-0.71786
-0.71265
-0.70725
-0.70167
-0.69591
-0.68997
-0.68385
-0.67756
-0.67109
-0.66444
-0.65763
-0.65064
-0.6435
-0.63618
-0.62871
-0.62108
-0.6133
-0.60536
-0.59728
-0.58905
-0.58067
-0.57215
-0.5635
-0.5547
-0.54578
-0.53672
-0.52753
-0.51822
-0.50879
-0.49923
-0.48956
-0.47977
-0.46986
-0.45985
-0.44973
-0.4395
-0.42917
-0.41874
-0.40821
-0.39758
-0.38686
-0.37606
-0.36516
-0.35418
-0.34312
-0.33198
-0.32076
-0.30948
-0.29812
-0.28669
-0.2752
-0.26365
-0.25204
-0.24038
-0.22867
-0.21691
-0.20511
-0.19326
-0.18138
-0.16947
-0.15752
-0.14554
-0.13354
-0.12152
-0.10947
-0.097414
-0.08534
-0.073255
-0.061161
-0.049062
-0.03696
-0.024858
-0.012759
-0.00066496
0.011421
0.023496
0.035558
0.047603
0.05963
0.071635
0.083615
0.095568
0.10749
0.11938
0.13123
0.14305
0.15482
0.16655
0.17823
0.18986
0.20143
0.21295
0.2244
0.23579
0.24711
0.25836
0.26954
0.28064
0.29166
0.30259
0.31344
0.3242
0.33487
0.34544
0.35592
0.3663
0.37657
0.38675
0.39682
0.40678
0.41663
0.42637
0.436
0.44552
0.45491
0.4642
0.47336
0.4824
0.49133
0.50013
0.5088
0.51735
0.52578
0.53407
0.54224
0.55028
0.5582
0.56597
0.57362
0.58114
0.58852
0.59576
0.60287
0.60985
0.61668
0.62338
0.62994
0.63636
0.64264
0.64878
0.65478
0.66064
0.66636
0.67193
0.67736
0.68265
0.6878
0.69281
0.69767
0.70239
0.70696
0.7114
0.71569
0.71983
0.72384
0.7277
0.73142
0.735
0.73844
0.74174
0.74489
0.74791
0.75078
0.75351
0.75611
0.75856
0.76088
0.76306
0.76509
0.767
0.76876
0.77039
0.77188
0.77323
0.77445
0.77553
0.77648
0.7773
0.77798
0.77853
0.77894
0.77923
0.77938
0.7794
0.7793
0.77906
0.7787
0.77821
0.77759
0.77685
0.77598
0.77498
0.77387
0.77263
0.77127
0.76979
0.76819
0.76647
0.76463
0.76268
0.76061
0.75843
0.75613
0.75373
0.75121
0.74858
0.74584
0.743
0.74005
0.737
0.73385
0.73059
0.72723
0.72378
0.72023
0.71658
0.71284
0.70901
0.70509
0.70108
0.69699
0.6928
0.68854
0.68419
0.67976
0.67525
0.67066
0.66599
0.66125
0.65644
0.65155
0.6466
0.64157
0.63648
0.63132
0.62609
0.62081
0.61546
0.61005
0.60458
0.59906
0.59348
0.58785
0.58217
0.57643
0.57065
0.56483
0.55896
0.55305
0.54709
0.5411
0.53507
0.52901
0.52292
0.5168
0.51065
0.50447
0.49827
0.49205
0.48581
0.47955
0.47328
0.46699
0.46069
0.45438
0.44805
0.44172
0.43539
0.42905
0.4227
0.41635
0.41001
0.40366
0.39731
0.39096
0.38462
0.37828
0.37195
0.36562
0.3593
0.35299
0.34668
0.34039
0.33411
0.32784
0.32159
0.31534
0.30912
0.3029
0.29671
0.29053
0.28437
0.27823
0.27211
0.26601
0.25994
0.25389
0.24786
0.24186
0.23588
0.22993
0.22401
0.21811
0.21224
0.20641
0.2006
0.19482
0.18907
0.18335
0.17767
0.17201
0.16639
0.1608
0.15525
0.14972
0.14423
0.13877
0.13335
0.12796
0.1226
0.11728
0.112
0.10675
0.10153
0.096352
0.091209
0.086102
0.081033
0.076
0.071006
0.06605
0.061132
0.056254
0.051415
0.046617
0.04186
0.037144
0.03247
0.027839
0.02325
0.018705
0.014203
0.0097444
0.0053298
0.00095931
-0.0033672
-0.0076495
-0.011888
-0.016082
-0.020232
-0.024338
-0.0284
-0.032418
-0.036393
-0.040324
-0.044212
-0.048058
-0.05186
-0.05562
-0.059338
-0.063014
-0.066649
-0.070242
-0.073794
-0.077306
-0.080777
-0.084209
-0.0876
-0.090952
-0.094265
-0.097539
-0.10078
-0.10397
-0.10713
-0.11025
-0.11334
-0.11638
-0.11939
-0.12237
-0.1253
-0.12821
-0.13107
-0.13391
-0.1367
-0.13947
-0.1422
-0.14491
-0.14758
-0.15022
-0.15284
-0.15542
-0.15798
-0.16052
-0.16303
-0.16552
-0.16798
-0.17043
-0.17285
-0.17526
-0.17765
-0.18002
-0.18238
-0.18473
-0.18707
-0.18939
-0.1917
-0.19401
-0.19631
-0.19861
-0.2009
-0.20319
-0.20548
-0.20776
-0.21005
-0.21235
-0.21464
-0.21694
-0.21925
-0.22157
-0.2239
-0.22623
-0.22858
-0.23094
-0.23332
-0.23571
-0.23812
-0.24055
-0.243
-0.24547
-0.24796
-0.25047
-0.25301
-0.25558
-0.25817
-0.26079
-0.26344
-0.26612
-0.26883
-0.27157
-0.27434
-0.27715
-0.28
-0.28287
-0.28579
-0.28874
-0.29173
-0.29476
-0.29782
-0.30092
-0.30407
-0.30725
-0.31047
-0.31373
-0.31704
-0.32038
-0.32376
-0.32719
-0.33065
-0.33415
-0.33769
-0.34127
-0.34489
-0.34855
-0.35225
-0.35599
-0.35976
-0.36358
-0.36743
-0.37131
-0.37523
-0.37919
-0.38318
-0.38721
-0.39127
-0.39536
-0.39948
-0.40364
-0.40782
-0.41203
-0.41627
-0.42053
-0.42482
-0.42914
-0.43347
-0.43782
-0.4422
-0.44659
-0.45099
-0.45541
-0.45984
-0.46429
-0.46873
-0.47319
-0.47764
-0.4821
-0.48656
-0.49101
-0.49546
-0.49989
-0.50432
-0.50873
-0.51313
-0.51751
-0.52187
-0.52621
-0.53052
-0.53481
-0.53906
-0.54329
-0.54748
-0.55164
-0.55576
-0.55984
-0.56388
-0.56787
-0.57182
-0.57571
-0.57956
-0.58336
-0.5871
-0.59078
-0.5944
-0.59796
-0.60146
-0.6049
-0.60826
-0.61156
-0.61478
-0.61793
-0.621
-0.624
-0.62691
-0.62974
-0.63249
-0.63515
-0.63771
-0.64019
-0.64258
-0.64487
-0.64706
-0.64915
-0.65114
-0.65302
-0.6548
-0.65648
-0.65804
-0.6595
-0.66084
-0.66207
-0.66319
-0.66418
-0.66506
-0.66582
-0.66646
-0.66698
-0.66737
-0.66764
-0.66778
-0.66779
-0.66768
-0.66744
-0.66706
-0.66656
-0.66592
-0.66515
-0.66425
-0.66321
-0.66204
-0.66073
-0.65928
-0.6577
-0.65598
-0.65412
-0.65213
-0.65
-0.64772
-0.64531
-0.64276
-0.64008
-0.63725
-0.63428
-0.63118
-0.62794
-0.62455
-0.62104
-0.61738
-0.61358
-0.60965
-0.60558
-0.60138
-0.59704
-0.59256
-0.58795
-0.58321
-0.57834
-0.57333
-0.56819
-0.56293
-0.55753
-0.55201
-0.54636
-0.54059
-0.5347
-0.52869
-0.52255
-0.5163
-0.50993
-0.50345
-0.49686
-0.49016
-0.48335
-0.47643
-0.46941
-0.4623
-0.45508
-0.44777
-0.44037
-0.43288
-0.4253
-0.41764
-0.4099
-0.40208
-0.39419
-0.38622
-0.37817
-0.37006
-0.36189
-0.35365
-0.34534
-0.33698
-0.32856
-0.32009
-0.31156
-0.30298
-0.29436
-0.28569
-0.27697
-0.26822
-0.25942
-0.25059
-0.24172
-0.23283
-0.2239
-0.21495
-0.20597
-0.19696
-0.18794
-0.1789
-0.16985
-0.16078
-0.15171
-0.14263
-0.13354
-0.12445
-0.11536
-0.10628
-0.0972
-0.088133
-0.079078
-0.070037
-0.061014
-0.05201
-0.043028
-0.03407
-0.025137
-0.016233
-0.007359
0.0014832
0.010291
0.019064
0.0278
0.036496
0.045151
0.053764
0.062334
0.070857
0.079334
0.087762
0.096141
0.10447
0.11274
0.12096
0.12913
0.13724
0.14528
0.15327
0.1612
0.16907
0.17687
0.18461
0.19228
0.19988
0.20742
0.21488
0.22227
0.22958
0.23682
0.24399
0.25107
0.25808
0.265
0.27184
0.2786
0.28528
0.29188
0.29838
0.30481
0.31114
0.31739
0.32356
0.32963
0.33562
0.34152
0.34733
0.35306
0.35869
0.36423
0.36969
0.37506
0.38033
0.38552
0.39062
0.39563
0.40055
0.40538
0.41012
0.41477
0.41934
0.42381
0.42819
0.43249
0.4367
0.44081
0.44484
0.44878
0.45263
0.45639
0.46006
0.46365
0.46714
0.47054
0.47386
0.47709
0.48023
0.48328
0.48625
0.48912
0.49191
0.49462
0.49723
0.49976
0.50221
0.50457
0.50684
0.50903
0.51114
0.51316
0.51509
0.51695
0.51872
0.52041
0.52201
0.52354
0.52498
0.52634
0.52761
0.52881
0.52993
0.53096
0.53192
0.53279
0.53359
0.5343
0.53494
0.5355
0.53597
0.53637
0.53669
0.53692
0.53708
0.53716
0.53717
0.53709
0.53694
0.53671
0.5364
0.53602
0.53557
0.53504
0.53443
0.53376
0.53301
0.53219
0.5313
0.53034
0.52932
0.52823
0.52707
0.52584
0.52456
0.52321
0.5218
0.52032
0.51879
0.51721
0.51556
0.51387
0.51212
0.51032
0.50846
0.50656
0.50462
0.50262
0.50059
0.49851
0.49639
0.49423
0.49204
0.48981
0.48755
0.48525
0.48293
0.48057
0.47819
0.47578
0.47335
0.4709
0.46842
0.46592
0.46341
0.46088
0.45833
0.45576
0.45319
0.4506
0.448
0.44539
0.44277
0.44014
0.43751
0.43487
0.43222
0.42958
0.42693
0.42428
0.42163
0.41898
0.41633
0.41368
0.41104
0.4084
0.40576
0.40313
0.40051
0.3979
0.39529
0.39269
0.3901
0.38752
0.38495
0.38239
0.37984
0.37731
0.37478
0.37227
0.36978
0.36729
0.36482
0.36237
0.35993
0.3575
0.35509
0.3527
0.35032
0.34795
0.3456
0.34327
0.34095
0.33865
0.33637
0.3341
0.33184
0.32961
0.32738
0.32518
0.32299
0.32081
0.31866
0.31651
0.31438
0.31227
0.31017
0.30809
0.30602
0.30396
0.30192
0.2999
0.29788
0.29588
0.2939
0.29192
0.28996
0.28801
0.28607
0.28414
0.28223
0.28032
0.27843
0.27655
0.27467
0.27281
0.27096
0.26911
0.26728
0.26545
0.26364
0.26183
0.26003
0.25823
0.25645
0.25467
0.2529
0.25113
0.24938
0.24763
0.24588
0.24414
0.24241
0.24068
0.23896
0.23724
0.23553
0.23382
0.23212
0.23043
0.22873
0.22704
0.22536
0.22368
0.222
0.22033
0.21866
0.21699
0.21532
0.21366
0.212
0.21034
0.20868
0.20702
0.20536
0.20369
0.20203
0.20037
0.1987
0.19702
0.19535
0.19367
0.19198
0.19029
0.18859
0.18688
0.18516
0.18344
0.1817
0.17995
0.17819
0.17642
0.17463
0.17282
0.17101
0.16917
0.16732
0.16544
0.16355
0.16164
0.1597
0.15774
0.15576
0.15375
0.15171
0.14965
0.14756
0.14543
0.14328
0.1411
0.13888
0.13662
0.13433
0.13201
0.12964
0.12724
0.1248
0.12231
0.11978
0.11721
0.11459
0.11192
0.10921
0.10644
0.10363
0.10076
0.097846
0.094874
0.091847
0.088764
0.085624
0.082426
0.079168
0.075849
0.072469
0.069026
0.06552
0.061949
0.058312
0.054609
0.050839
0.047
0.043092
0.039115
0.035066
0.030946
0.026753
0.022487
0.018147
0.013732
0.0092425
0.0046763
3.3493e-05
-0.0046867
-0.0094848
-0.014361
-0.019317
-0.024352
-0.029467
-0.034662
-0.039937
-0.045294
-0.050731
-0.05625
-0.06185
-0.067532
-0.073295
-0.07914
-0.085066
-0.091073
-0.097161
-0.10333
-0.10958
-0.11591
-0.12232
-0.1288
-0.13537
-0.14201
-0.14873
-0.15553
-0.1624
-0.16934
-0.17636
-0.18344
-0.1906
-0.19783
-0.20513
-0.21249
-0.21992
-0.22742
-0.23498
-0.2426
-0.25028
-0.25802
-0.26582
-0.27368
-0.2816
-0.28956
-0.29759
-0.30566
-0.31378
-0.32195
-0.33016
-0.33842
-0.34672
-0.35507
-0.36345
-0.37186
-0.38031
-0.3888
-0.39731
-0.40585
-0.41441
-0.423
-0.4316
-0.44023
-0.44886
-0.45751
-0.46617
-0.47483
-0.48349
-0.49216
-0.50081
-0.50946
-0.51811
-0.52673
-0.53534
-0.54393
-0.5525
-0.56105
-0.56956
-0.57804
-0.58649
-0.5949
-0.60327
-0.61159
-0.61987
-0.6281
-0.63627
-0.64439
-0.65245
-0.66045
-0.66838
-0.67625
-0.68404
-0.69176
-0.6994
-0.70696
-0.71443
-0.72182
-0.72912
-0.73632
-0.74343
-0.75043
-0.75733
-0.76413
-0.77081
-0.77738
-0.78383
-0.79016
-0.79637
-0.80245
-0.8084
-0.81421
-0.81988
-0.82542
-0.83081
-0.83605
-0.84115
-0.84609
-0.85087
-0.8555
-0.85997
-0.86427
-0.86841
-0.87238
-0.87618
-0.87981
-0.88327
-0.88654
-0.88964
-0.89256
-0.8953
-0.89785
-0.90022
-0.9024
-0.90439
-0.90619
-0.9078
-0.90921
-0.91044
-0.91147
-0.9123
-0.91293
-0.91337
-0.91361
-0.91365
-0.91349
-0.91313
-0.91257
-0.91181
-0.91084
-0.90968
-0.90831
-0.90674
-0.90497
-0.903
-0.90083
-0.89845
-0.89587
-0.89309
-0.89011
-0.88693
-0.88354
-0.87996
-0.87618
-0.87219
-0.86801
-0.86364
-0.85906
-0.85429
-0.84932
-0.84416
-0.83881
-0.83326
-0.82753
-0.8216
-0.81549
-0.80919
-0.80271
-0.79604
-0.78919
-0.78217
-0.77497
-0.76759
-0.76004
-0.75232
-0.74444
-0.73639
-0.72817
-0.7198
-0.71127
-0.70259
-0.69375
-0.68477
-0.67564
-0.66637
-0.65696
-0.64741
-0.63773
-0.62791
-0.61796
-0.60788
-0.59768
-0.58735
-0.5769
-0.56634
-0.55566
-0.54486
-0.53395
-0.52294
-0.51181
-0.50059
-0.48926
-0.47783
-0.46631
-0.45469
-0.44298
-0.43118
-0.41929
-0.40732
-0.39527
-0.38314
-0.37094
-0.35866
-0.34631
-0.3339
-0.32143
-0.30889
-0.2963
-0.28366
-0.27097
-0.25823
-0.24544
-0.23262
-0.21976
-0.20687
-0.19394
-0.18099
-0.16801
-0.15501
-0.14199
-0.12895
-0.1159
-0.10284
-0.089765
-0.076686
-0.063603
-0.050518
-0.037435
-0.024356
-0.011283
0.0017816
0.014834
0.027873
0.040895
0.053897
0.066878
0.079833
0.092762
0.10566
0.11852
0.13135
0.14414
0.15689
0.16959
0.18225
0.19485
0.2074
0.21989
0.23232
0.24468
0.25697
0.2692
0.28135
0.29342
0.30541
0.31732
0.32915
0.34088
0.35253
0.36408
0.37554
0.3869
0.39816
0.40933
0.42039
0.43134
0.44219
0.45293
0.46356
0.47407
0.48448
0.49477
0.50494
0.515
0.52494
0.53476
0.54445
0.55403
0.56347
0.5728
0.58199
0.59106
0.6
0.60881
0.61748
0.62603
0.63443
0.64271
0.65084
0.65884
0.66669
0.67441
0.68198
0.68942
0.69671
0.70385
0.71085
0.71771
0.72442
0.73098
0.7374
0.74367
0.74979
0.75577
0.7616
0.76729
0.77282
0.77821
0.78345
0.78855
0.7935
0.7983
0.80296
0.80747
0.81184
0.81607
0.82014
0.82408
0.82787
0.83152
0.83503
0.83839
0.84162
0.8447
0.84765
0.85046
0.85313
0.85566
0.85805
0.86031
0.86243
0.86442
0.86627
0.86799
0.86958
0.87104
0.87237
0.87357
0.87464
0.87558
0.87639
0.87708
0.87765
0.87809
0.8784
0.8786
0.87867
0.87863
0.87846
0.87818
0.87778
0.87726
0.87663
0.87589
0.87503
0.87406
0.87298
0.87179
0.87049
0.86909
0.86758
0.86596
0.86424
0.86242
0.86049
0.85847
0.85635
0.85412
0.8518
0.84939
0.84688
0.84428
0.84158
0.8388
0.83592
0.83296
0.8299
0.82677
0.82354
0.82023
0.81683
0.81336
0.8098
0.80615
0.80243
0.79863
0.79475
0.79079
0.78675
0.78264
0.77845
0.77419
0.76985
0.76545
0.76096
0.75641
0.75179
0.74709
0.74233
0.7375
0.73261
0.72764
0.72262
0.71752
0.71237
0.70715
0.70187
0.69653
0.69114
0.68568
0.68017
0.6746
0.66898
0.6633
0.65757
0.65179
0.64595
0.64007
0.63414
0.62816
0.62213
0.61605
0.60993
0.60376
0.59755
0.59129
0.58499
0.57864
0.57226
0.56583
0.55937
0.55286
0.54632
0.53974
0.53312
0.52646
0.51978
0.51305
0.5063
0.49951
0.49269
0.48584
0.47896
0.47205
0.46512
0.45816
0.45118
0.44418
0.43716
0.43011
0.42305
0.41598
0.40888
0.40178
0.39466
0.38752
0.38038
0.37323
0.36607
0.3589
0.35173
0.34454
0.33736
0.33017
0.32297
0.31577
0.30857
0.30137
0.29417
0.28697
0.27976
0.27256
0.26536
0.25816
0.25097
0.24377
0.23658
0.2294
0.22222
0.21505
0.20788
0.20073
0.19358
0.18643
0.1793
0.17218
0.16507
0.15797
0.15089
0.14382
0.13677
0.12973
0.12271
0.1157
0.10872
0.10175
0.0948
0.087872
0.080964
0.074077
0.067211
0.060366
0.053543
0.046742
0.039962
0.033205
0.026471
0.019759
0.01307
0.0064039
-0.00023931
-0.0068594
-0.013456
-0.02003
-0.02658
-0.033107
-0.03961
-0.046089
-0.052545
-0.058976
-0.065383
-0.071766
-0.078124
-0.084458
-0.090765
-0.097048
-0.1033
-0.10953
-0.11574
-0.12191
-0.12806
-0.13418
-0.14028
-0.14634
-0.15237
-0.15838
-0.16436
-0.1703
-0.17622
-0.18211
-0.18797
-0.19381
-0.19961
-0.20539
-0.21113
-0.21685
-0.22254
-0.22821
-0.23384
-0.23945
-0.24504
-0.25059
-0.25612
-0.26163
-0.26711
-0.27256
-0.27799
-0.28339
-0.28877
-0.29413
-0.29946
-0.30477
-0.31005
-0.31531
-0.32055
-0.32576
-0.33095
-0.33612
-0.34127
-0.34639
-0.35148
-0.35655
-0.3616
-0.36663
-0.37163
-0.37661
-0.38157
-0.3865
-0.39141
-0.3963
-0.40116
-0.40601
-0.41083
-0.41563
-0.42041
-0.42517
-0.42992
-0.43464
-0.43934
-0.44403
-0.44869
-0.45334
-0.45797
-0.46259
-0.46718
-0.47177
-0.47633
-0.48088
-0.48542
-0.48994
-0.49444
-0.49893
-0.50341
-0.50787
-0.51232
-0.51675
-0.52117
-0.52558
-0.52997
-0.53435
-0.53871
-0.54306
-0.54739
-0.5517
-0.55601
-0.56029
-0.56456
-0.56882
-0.57306
-0.57728
-0.58149
-0.58567
-0.58985
-0.594
-0.59814
-0.60226
-0.60636
-0.61044
-0.6145
-0.61855
-0.62257
-0.62657
-0.63055
-0.63451
-0.63844
-0.64236
-0.64624
-0.6501
-0.65394
-0.65775
-0.66153
-0.66527
-0.66899
-0.67268
-0.67633
-0.67995
-0.68353
-0.68708
-0.69058
-0.69405
-0.69747
-0.70085
-0.70418
-0.70746
-0.7107
-0.71388
-0.71701
-0.72009
-0.72311
-0.72607
-0.72898
-0.73182
-0.7346
-0.73732
-0.73996
-0.74254
-0.74506
-0.74749
-0.74986
-0.75215
-0.75436
-0.7565
-0.75855
-0.76052
-0.76241
-0.76421
-0.76592
-0.76755
-0.76908
-0.77051
-0.77185
-0.77309
-0.77424
-0.77527
-0.77621
-0.77704
-0.77776
-0.77837
-0.77887
-0.77925
-0.77952
-0.77966
-0.77969
-0.77959
-0.77937
-0.77903
-0.77856
-0.77795
-0.77722
-0.77635
-0.77535
-0.77422
-0.77295
-0.77154
-0.76999
-0.76831
-0.76648
-0.76451
-0.7624
-0.76015
-0.75775
-0.75521
-0.75252
-0.74969
-0.74672
-0.74359
-0.74033
-0.73691
-0.73336
-0.72965
-0.7258
-0.72181
-0.71767
-0.71338
-0.70896
-0.70438
-0.69967
-0.69482
-0.68982
-0.68469
-0.67941
-0.674
-0.66846
-0.66278
-0.65696
-0.65101
-0.64493
-0.63872
-0.63238
-0.62591
-0.61932
-0.61259
-0.60575
-0.59878
-0.59169
-0.58448
-0.57715
-0.5697
-0.56214
-0.55446
-0.54667
-0.53877
-0.53076
-0.52264
-0.51442
-0.50609
-0.49766
-0.48913
-0.4805
-0.47178
-0.46296
-0.45405
-0.44505
-0.43597
-0.4268
-0.41754
-0.40821
-0.39881
-0.38932
-0.37977
-0.37015
-0.36047
-0.35072
-0.34091
-0.33104
-0.32112
-0.31115
-0.30113
-0.29106
-0.28094
-0.27078
-0.26059
-0.25035
-0.24008
-0.22977
-0.21943
-0.20906
-0.19867
-0.18825
-0.1778
-0.16734
-0.15685
-0.14635
-0.13583
-0.1253
-0.11476
-0.10422
-0.093661
-0.083102
-0.072541
-0.06198
-0.051422
-0.040868
-0.030322
-0.019785
-0.0092604
0.0012499
0.011743
0.022217
0.032669
0.043096
0.053495
0.063865
0.074203
0.084507
0.094774
0.105
0.11519
0.12533
0.13543
0.14548
0.15548
0.16543
0.17533
0.18517
0.19496
0.20468
0.21435
0.22395
0.23349
0.24296
0.25236
0.26169
0.27095
0.28014
0.28925
0.29828
0.30724
0.31611
0.3249
0.3336
0.34222
0.35074
0.35917
0.36752
0.37576
0.38391
0.39195
0.39989
0.40773
0.41546
0.42308
0.43059
0.43799
0.44527
0.45244
0.45948
0.46641
0.47321
0.4799
0.48646
0.49289
0.4992
0.50538
0.51143
0.51736
0.52315
0.52882
0.53436
0.53976
0.54504
0.55018
0.55519
0.56007
0.56482
0.56944
0.57392
0.57828
0.5825
0.58659
0.59055
0.59438
0.59807
0.60164
0.60508
0.60838
0.61156
0.61461
0.61753
0.62033
0.62299
0.62553
0.62795
0.63023
0.6324
0.63444
0.63636
0.63816
0.63983
0.64139
0.64282
0.64414
0.64534
0.64642
0.64739
0.64824
0.64898
0.64961
0.65012
0.65053
0.65082
0.65101
0.65109
0.65107
0.65093
0.6507
0.65036
0.64992
0.64938
0.64874
0.648
0.64717
0.64624
0.64521
0.64409
0.64288
0.64157
0.64018
0.6387
0.63713
0.63547
0.63372
0.6319
0.62999
0.62799
0.62592
0.62377
0.62154
0.61923
0.61684
0.61439
0.61185
0.60925
0.60658
0.60383
0.60102
0.59815
0.5952
0.5922
0.58913
0.586
0.58281
0.57956
0.57625
0.57289
0.56948
0.56601
0.56249
0.55892
0.55531
0.55165
0.54794
0.54419
0.5404
0.53657
0.5327
0.5288
0.52486
0.52088
0.51688
0.51285
0.50878
0.5047
0.50059
0.49645
0.4923
0.48812
0.48393
0.47972
0.47549
0.47125
0.467
0.46274
0.45847
0.4542
0.44991
0.44562
0.44133
0.43704
0.43274
0.42845
0.42415
0.41986
0.41558
0.4113
0.40702
0.40276
0.3985
0.39426
0.39002
0.3858
0.3816
0.37741
0.37324
0.36908
0.36495
0.36083
0.35674
0.35267
0.34862
0.3446
0.34061
0.33665
0.33271
0.32881
0.32493
0.32109
0.31728
0.3135
0.30976
0.30605
0.30237
0.29874
0.29513
0.29156
0.28803
0.28454
0.28108
0.27766
0.27428
0.27093
0.26763
0.26436
0.26112
0.25792
0.25476
0.25164
0.24856
0.24551
0.24249
0.23951
0.23657
0.23366
0.23079
0.22795
0.22514
0.22237
0.21963
0.21692
0.21425
0.2116
0.20899
0.20641
0.20385
0.20132
0.19883
0.19635
0.19391
0.19149
0.1891
0.18673
0.18438
0.18206
0.17976
0.17748
0.17522
0.17298
0.17076
0.16856
0.16637
0.1642
0.16205
0.15991
0.15779
0.15568
0.15358
0.1515
0.14942
0.14736
0.14531
0.14326
0.14123
0.1392
0.13718
0.13516
0.13315
0.13115
0.12915
0.12715
0.12516
0.12317
0.12118
0.11919
0.1172
0.11522
0.11323
0.11124
0.10925
0.10726
0.10526
0.10326
0.10126
0.099251
0.097235
0.095212
0.093182
0.091144
0.089096
0.087038
0.08497
0.082891
0.080799
0.078695
0.076577
0.074445
0.072297
0.070134
0.067955
0.065758
0.063543
0.06131
0.059058
0.056785
0.054492
0.052178
0.049842
0.047483
0.045101
0.042696
0.040267
0.037812
0.035333
0.032827
0.030295
0.027735
0.025148
0.022532
0.019886
0.017211
0.014505
0.011768
0.0089982
0.0061959
0.00336
0.0004898
-0.0024154
-0.0053564
-0.008334
-0.011349
-0.014401
-0.017493
-0.020624
-0.023795
-0.027007
-0.03026
-0.033556
-0.036894
-0.040276
-0.043702
-0.047173
-0.050689
-0.054252
-0.05786
-0.061516
-0.065219
-0.06897
-0.07277
-0.076618
-0.080516
-0.084462
-0.088459
-0.092506
-0.096603
-0.10075
-0.10495
-0.1092
-0.1135
-0.11786
-0.12226
-0.12672
-0.13124
-0.1358
-0.14042
-0.14509
-0.14981
-0.15459
-0.15942
-0.16431
-0.16925
-0.17424
-0.17929
-0.18439
-0.18954
-0.19474
-0.2
-0.20531
-0.21068
-0.21609
-0.22156
-0.22708
-0.23265
-0.23827
-0.24393
-0.24965
-0.25541
-0.26122
-0.26708
-0.27298
-0.27892
-0.28491
-0.29094
-0.297
-0.30311
-0.30925
-0.31543
-0.32165
-0.3279
-0.33419
-0.3405
-0.34685
-0.35322
-0.35963
-0.36606
-0.37251
-0.37899
-0.3855
-0.39202
-0.39857
-0.40513
-0.41172
-0.41832
-0.42493
-0.43155
-0.43819
-0.44484
-0.45149
-0.45816
-0.46482
-0.47149
-0.47816
-0.48483
-0.4915
-0.49816
-0.50481
-0.51146
-0.51809
-0.52471
-0.53132
-0.53791
-0.54447
-0.55101
-0.55753
-0.56402
-0.57048
-0.5769
-0.58329
-0.58964
-0.59596
-0.60222
-0.60845
-0.61462
-0.62075
-0.62682
-0.63284
-0.6388
-0.6447
-0.65054
-0.65632
-0.66202
-0.66766
-0.67322
-0.67871
-0.68412
-0.68945
-0.69469
-0.69986
-0.70493
-0.70991
-0.7148
-0.71959
-0.72428
-0.72887
-0.73335
-0.73773
-0.742
-0.74615
-0.75019
-0.7541
-0.7579
-0.76157
-0.76511
-0.76852
-0.7718
-0.77495
-0.77795
-0.78081
-0.78353
-0.7861
-0.78853
-0.7908
-0.79293
-0.79489
-0.79671
-0.79836
-0.79985
-0.80118
-0.80235
-0.80335
-0.80419
-0.80486
-0.80536
-0.80569
-0.80585
-0.80584
-0.80565
-0.80529
-0.80476
-0.80405
-0.80316
-0.8021
-0.80086
-0.79945
-0.79785
-0.79608
-0.79414
-0.79201
-0.78971
-0.78724
-0.78459
-0.78176
-0.77876
-0.77558
-0.77223
-0.76871
-0.76502
-0.76115
-0.75712
-0.75292
-0.74855
-0.74401
-0.7393
-0.73443
-0.7294
-0.7242
-0.71884
-0.71332
-0.70765
-0.70181
-0.69582
-0.68968
-0.68338
-0.67694
-0.67034
-0.6636
-0.65671
-0.64968
-0.64251
-0.6352
-0.62776
-0.62018
-0.61247
-0.60463
-0.59667
-0.58858
-0.58038
-0.57205
-0.56361
-0.55507
-0.54641
-0.53765
-0.52879
-0.51983
-0.51078
-0.50163
-0.4924
-0.48309
-0.47369
-0.46421
-0.45466
-0.44503
-0.43533
-0.42557
-0.41574
-0.40585
-0.39589
-0.38588
-0.37582
-0.3657
-0.35554
-0.34533
-0.33507
-0.32477
-0.31443
-0.30405
-0.29364
-0.2832
-0.27272
-0.26222
-0.25169
-0.24114
-0.23057
-0.21998
-0.20938
-0.19876
-0.18813
-0.1775
-0.16686
-0.15621
-0.14557
-0.13493
-0.1243
-0.11367
-0.10306
-0.092456
-0.08187
-0.071301
-0.060753
-0.050226
-0.039723
-0.029246
-0.018796
-0.0083754
0.0020142
0.012371
0.022694
0.032981
0.043231
0.053442
0.063613
0.073742
0.083829
0.093872
0.10387
0.11382
0.12372
0.13358
0.14338
0.15313
0.16283
0.17248
0.18206
0.1916
0.20107
0.21049
0.21984
0.22914
0.23837
0.24754
0.25664
0.26567
0.27463
0.28353
0.29235
0.30111
0.30978
0.31839
0.32692
0.33537
0.34375
0.35205
0.36027
0.36841
0.37648
0.38446
0.39237
0.40019
0.40794
0.4156
0.42319
0.43069
0.43811
0.44545
0.45271
0.45989
0.46698
0.474
0.48093
0.48778
0.49455
0.50123
0.50784
0.51436
0.5208
0.52716
0.53344
0.53964
0.54575
0.55178
0.55773
0.5636
0.56938
0.57508
0.5807
0.58624
0.5917
0.59707
0.60236
0.60757
0.6127
0.61774
0.62271
0.62759
0.63239
0.63712
0.64176
0.64632
0.6508
0.65521
0.65954
0.66378
0.66795
0.67205
0.67606
0.68
0.68387
0.68766
0.69137
0.69501
0.69857
0.70206
0.70547
0.70882
0.71209
0.71528
0.71841
0.72146
0.72444
0.72735
0.73018
0.73295
0.73565
0.73827
0.74082
0.74331
0.74572
0.74807
0.75034
0.75255
0.75469
0.75676
0.75876
0.76069
0.76255
0.76434
0.76607
0.76773
0.76932
0.77084
0.7723
0.77369
0.77501
0.77626
0.77745
0.77857
0.77962
0.78061
0.78152
0.78238
0.78316
0.78388
0.78453
0.78511
0.78563
0.78608
0.78646
0.78677
0.78702
0.7872
0.78732
0.78736
0.78734
0.78725
0.78709
0.78687
0.78658
0.78622
0.78579
0.78529
0.78472
0.78408
0.78338
0.7826
0.78176
0.78084
0.77986
0.7788
0.77767
0.77647
0.7752
0.77385
0.77243
0.77094
0.76938
0.76774
0.76603
0.76425
0.76239
0.76045
0.75844
0.75635
0.75419
0.75195
0.74964
0.74725
0.74478
0.74224
0.73962
0.73692
0.73415
0.73129
0.72836
0.72536
0.72227
0.71911
0.71587
0.71256
0.70917
0.7057
0.70215
0.69852
0.69482
0.69104
0.68719
0.68325
0.67924
0.67516
0.67099
0.66675
0.66244
0.65805
0.65358
0.64904
0.64442
0.63973
0.63497
0.63013
0.62522
0.62024
0.61519
0.61007
0.60488
0.59963
0.5943
0.58891
0.58345
0.57793
0.57235
0.56671
0.56101
0.55525
0.54943
0.54356
0.53763
0.53165
0.52563
0.51955
0.51342
0.50725
0.50103
0.49477
0.48846
0.48211
0.47572
0.46928
0.46281
0.4563
0.44975
0.44316
0.43653
0.42987
0.42317
0.41644
0.40967
0.40287
0.39604
0.38918
0.38228
0.37535
0.3684
0.36141
0.3544
0.34736
0.3403
0.3332
0.32609
0.31895
0.31178
0.3046
0.29739
0.29016
0.28292
0.27565
0.26837
0.26108
0.25376
0.24644
0.2391
0.23174
0.22437
0.21699
0.2096
0.2022
0.19478
0.18736
0.17992
0.17248
0.16502
0.15756
0.15008
0.1426
0.1351
0.1276
0.12009
0.11257
0.10504
0.097509
0.089966
0.082415
0.074857
0.067291
0.05972
0.052141
0.044557
0.036968
0.029374
0.021775
0.014172
0.0065666
-0.0010416
-0.0086514
-0.016262
-0.023873
-0.031484
-0.039094
-0.046702
-0.054308
-0.061913
-0.069515
-0.077114
-0.08471
-0.092304
-0.099894
-0.10748
-0.11507
-0.12265
-0.13023
-0.1378
-0.14537
-0.15294
-0.16051
-0.16808
-0.17564
-0.1832
-0.19076
-0.19832
-0.20588
-0.21343
-0.22099
-0.22854
-0.23609
-0.24365
-0.2512
-0.25875
-0.2663
-0.27384
-0.28139
-0.28893
-0.29648
-0.30402
-0.31155
-0.31909
-0.32662
-0.33415
-0.34167
-0.34919
-0.3567
-0.36421
-0.37171
-0.37921
-0.3867
-0.39419
-0.40167
-0.40914
-0.41661
-0.42407
-0.43152
-0.43897
-0.44641
-0.45384
-0.46127
-0.46868
-0.47609
-0.48349
-0.49088
-0.49826
-0.50564
-0.513
-0.52035
-0.52769
-0.53501
-0.54233
-0.54963
-0.55691
-0.56418
-0.57143
-0.57867
-0.58588
-0.59308
-0.60025
-0.6074
-0.61452
-0.62162
-0.62869
-0.63573
-0.64274
-0.64972
-0.65666
-0.66357
-0.67044
-0.67728
-0.68407
-0.69083
-0.69754
-0.70421
-0.71084
-0.71742
-0.72395
-0.73044
-0.73687
-0.74325
-0.74959
-0.75586
-0.76209
-0.76825
-0.77436
-0.78041
-0.78639
-0.79232
-0.79818
-0.80397
-0.8097
-0.81536
-0.82095
-0.82646
-0.8319
-0.83726
-0.84255
-0.84775
-0.85287
-0.85791
-0.86286
-0.86772
-0.87249
-0.87716
-0.88174
-0.88622
-0.89061
-0.89489
-0.89907
-0.90314
-0.9071
-0.91096
-0.9147
-0.91833
-0.92185
-0.92525
-0.92853
-0.93169
-0.93472
-0.93763
-0.94042
-0.94308
-0.94561
-0.948
-0.95027
-0.9524
-0.95439
-0.95624
-0.95795
-0.95952
-0.96095
-0.96223
-0.96337
-0.96435
-0.96518
-0.96586
-0.96639
-0.96676
-0.96697
-0.96702
-0.96691
-0.96664
-0.9662
-0.9656
-0.96483
-0.96389
-0.96278
-0.9615
-0.96005
-0.95842
-0.95662
-0.95465
-0.9525
-0.95017
-0.94767
-0.94499
-0.94213
-0.93909
-0.93588
-0.93248
-0.92891
-0.92516
-0.92124
-0.91713
-0.91285
-0.90839
-0.90376
-0.89895
-0.89397
-0.88881
-0.88348
-0.87798
-0.87231
-0.86647
-0.86047
-0.8543
-0.84796
-0.84146
-0.83481
-0.82799
-0.82102
-0.81389
-0.80662
-0.79919
-0.79161
-0.7839
-0.77603
-0.76803
-0.75989
-0.75161
-0.74319
-0.73465
-0.72597
-0.71716
-0.70823
-0.69917
-0.69
-0.6807
-0.67128
-0.66175
-0.65211
-0.64235
-0.63249
-0.62252
-0.61245
-0.60227
-0.592
-0.58163
-0.57116
-0.56061
-0.54996
-0.53923
-0.52842
-0.51753
-0.50656
-0.49551
-0.48439
-0.47321
-0.46195
-0.45064
-0.43927
-0.42784
-0.41636
-0.40483
-0.39326
-0.38164
-0.36998
-0.35829
-0.34656
-0.3348
-0.32301
-0.31119
-0.29936
-0.2875
-0.27562
-0.26373
-0.25182
-0.23991
-0.22799
-0.21606
-0.20413
-0.1922
-0.18027
-0.16835
-0.15643
-0.14453
-0.13263
-0.12076
-0.1089
-0.09706
-0.085245
-0.073456
-0.061697
-0.049969
-0.038275
-0.026619
-0.015003
-0.0034314
0.0080942
0.01957
0.030993
0.04236
0.053669
0.064915
0.076097
0.087212
0.098257
0.10923
0.12013
0.13095
0.14169
0.15235
0.16293
0.17342
0.18383
0.19415
0.20438
0.21451
0.22455
0.2345
0.24435
0.2541
0.26376
0.27331
0.28276
0.29211
0.30135
0.31049
0.31951
0.32844
0.33725
0.34595
0.35454
0.36302
0.37138
0.37963
0.38777
0.39578
0.40368
0.41146
0.41912
0.42666
0.43407
0.44136
0.44853
0.45557
0.46249
0.46928
0.47595
0.48249
0.4889
0.49518
0.50134
0.50737
0.51327
0.51904
0.52469
0.53021
0.5356
0.54087
0.54601
0.55102
0.55591
0.56067
0.56531
0.56982
0.57421
0.57848
0.58262
0.58664
0.59054
0.59432
0.59797
0.60151
0.60493
0.60823
0.61141
0.61448
0.61743
0.62026
0.62298
0.62559
0.62808
0.63046
0.63273
0.63489
0.63694
0.63888
0.64071
0.64243
0.64405
0.64557
0.64698
0.64828
0.64949
0.6506
0.6516
0.65251
0.65333
0.65404
0.65467
0.65519
0.65563
0.65598
0.65623
0.6564
0.65648
0.65648
0.65639
0.65621
0.65596
0.65562
0.65521
0.65471
0.65414
0.6535
0.65277
0.65198
0.65111
0.65018
0.64917
0.64809
0.64695
0.64574
0.64447
0.64314
0.64174
0.64029
0.63877
0.6372
0.63557
0.63389
0.63215
0.63036
0.62852
0.62663
0.62469
0.62271
0.62068
0.61861
0.6165
0.61435
0.61215
0.60992
0.60766
0.60536
0.60303
0.60067
0.59827
0.59585
0.59341
0.59094
0.58844
0.58593
0.58339
0.58084
0.57827
0.57569
0.57309
0.57048
0.56787
0.56524
0.56261
0.55998
0.55734
0.5547
0.55206
0.54942
0.54679
0.54416
0.54153
0.53891
0.5363
0.53369
0.5311
0.52851
0.52594
0.52337
0.52082
0.51829
0.51576
0.51326
0.51076
0.50828
0.50582
0.50338
0.50095
0.49854
0.49615
0.49377
0.49141
0.48907
0.48675
0.48445
0.48216
0.47989
0.47765
0.47542
0.4732
0.47101
0.46883
0.46667
0.46453
0.46241
0.4603
0.45821
0.45614
0.45408
0.45203
0.45001
0.44799
0.44599
0.44401
0.44204
0.44008
0.43813
0.43619
0.43426
0.43235
0.43044
0.42855
0.42666
0.42478
0.4229
0.42103
0.41917
0.41731
0.41546
0.41361
0.41177
0.40992
0.40808
0.40624
0.4044
0.40255
0.40071
0.39887
0.39702
0.39517
0.39332
0.39146
0.3896
0.38773
0.38585
0.38397
0.38208
0.38019
0.37828
0.37637
0.37444
0.37251
0.37056
0.3686
0.36663
0.36465
0.36265
0.36063
0.3586
0.35655
0.35449
0.35241
0.35031
0.34819
0.34605
0.34389
0.34171
0.3395
0.33728
0.33503
0.33276
0.33047
0.32815
0.32581
0.32344
0.32105
0.31863
0.31618
0.31371
0.31121
0.30868
0.30613
0.30354
0.30093
0.2983
0.29563
0.29293
0.29021
0.28746
0.28467
0.28186
0.27901
0.27614
0.27323
0.2703
0.26733
0.26433
0.26129
0.25823
0.25513
0.25199
0.24883
0.24563
0.24239
0.23912
0.23581
0.23247
0.2291
0.22568
0.22223
0.21875
0.21523
0.21167
0.20807
0.20444
0.20077
0.19706
0.19332
0.18953
0.18571
0.18186
0.17796
0.17403
0.17006
0.16606
0.16201
0.15793
0.15381
0.14965
0.14546
0.14122
0.13695
0.13263
0.12828
0.12389
0.11945
0.11498
0.11046
0.1059
0.1013
0.096649
0.091959
0.087223
0.082443
0.077617
0.072744
0.067824
0.062857
0.057841
0.052776
0.047662
0.042498
0.037283
0.032018
0.0267
0.021331
0.015909
0.010434
0.0049057
-0.00067622
-0.0063122
-0.012002
-0.017747
-0.023547
-0.029402
-0.035312
-0.041279
-0.047301
-0.053379
-0.059515
-0.065707
-0.071957
-0.078264
-0.084628
-0.091051
-0.097532
-0.10407
-0.11067
-0.11732
-0.12404
-0.13081
-0.13764
-0.14453
-0.15148
-0.15848
-0.16555
-0.17267
-0.17985
-0.18708
-0.19437
-0.20172
-0.20912
-0.21657
-0.22408
-0.23164
-0.23925
-0.24691
-0.25462
-0.26238
-0.27018
-0.27803
-0.28593
-0.29386
-0.30183
-0.30984
-0.31789
-0.32597
-0.33409
-0.34224
-0.35042
-0.35862
-0.36686
-0.37511
-0.38339
-0.3917
-0.40002
-0.40835
-0.41671
-0.42507
-0.43345
-0.44184
-0.45023
-0.45863
-0.46704
-0.47544
-0.48384
-0.49224
-0.50064
-0.50902
-0.5174
-0.52577
-0.53413
-0.54247
-0.5508
-0.5591
-0.56739
-0.57566
-0.5839
-0.59212
-0.60031
-0.60848
-0.61661
-0.62471
-0.63278
-0.64081
-0.6488
-0.65675
-0.66467
-0.67253
-0.68036
-0.68813
-0.69585
-0.70352
-0.71114
-0.7187
-0.72621
-0.73365
-0.74103
-0.74834
-0.75559
-0.76276
-0.76986
-0.77688
-0.78383
-0.7907
-0.79748
-0.80417
-0.81077
-0.81728
-0.8237
-0.83001
-0.83622
-0.84233
-0.84833
-0.85421
-0.85998
-0.86562
-0.87115
-0.87654
-0.88181
-0.88694
-0.89192
-0.89677
-0.90147
-0.90602
-0.91041
-0.91465
-0.91873
-0.92264
-0.92638
-0.92995
-0.93335
-0.93657
-0.93961
-0.94247
-0.94514
-0.94763
-0.94992
-0.95203
-0.95394
-0.95565
-0.95716
-0.95848
-0.95959
-0.9605
-0.9612
-0.9617
-0.96199
-0.96207
-0.96193
-0.96159
-0.96104
-0.96027
-0.95929
-0.95809
-0.95668
-0.95506
-0.95322
-0.95117
-0.9489
-0.94641
-0.94372
-0.94081
-0.93768
-0.93434
-0.93079
-0.92703
-0.92306
-0.91888
-0.91449
-0.9099
-0.90509
-0.90009
-0.89487
-0.88946
-0.88384
-0.87803
-0.87202
-0.86581
-0.85941
-0.85282
-0.84604
-0.83907
-0.83191
-0.82458
-0.81706
-0.80937
-0.8015
-0.79346
-0.78525
-0.77688
-0.76834
-0.75965
-0.7508
-0.7418
-0.73266
-0.72337
-0.71394
-0.70437
-0.69467
-0.68485
-0.67491
-0.66485
-0.65467
-0.64439
-0.63401
-0.62353
-0.61295
-0.60228
-0.59154
-0.58071
-0.5698
-0.55883
-0.54779
-0.53669
-0.52553
-0.51432
-0.50307
-0.49178
-0.48045
-0.46909
-0.4577
-0.44629
-0.43486
-0.42342
-0.41198
-0.40052
-0.38907
-0.37763
-0.36619
-0.35476
-0.34334
-0.33195
-0.32057
-0.30922
-0.29789
-0.28659
-0.27532
-0.26408
-0.25288
-0.24172
-0.2306
-0.21952
-0.20848
-0.19748
-0.18653
-0.17563
-0.16477
-0.15397
-0.14322
-0.13251
-0.12186
-0.11127
-0.10073
-0.090239
-0.079808
-0.069433
-0.059115
-0.048854
-0.038651
-0.028507
-0.018421
-0.0083942
0.0015732
0.011481
0.021328
0.031116
0.040842
0.050508
0.060112
0.069655
0.079135
0.088554
0.097909
0.1072
0.11643
0.1256
0.1347
0.14373
0.1527
0.16161
0.17044
0.17921
0.18791
0.19655
0.20511
0.21361
0.22203
0.23039
0.23867
0.24689
0.25503
0.26311
0.27111
0.27904
0.28691
0.2947
0.30243
0.31008
0.31767
0.32518
0.33263
0.34001
0.34732
0.35456
0.36174
0.36884
0.37588
0.38285
0.38976
0.3966
0.40337
0.41007
0.41671
0.42328
0.42979
0.43622
0.4426
0.4489
0.45514
0.46132
0.46742
0.47346
0.47944
0.48534
0.49118
0.49695
0.50266
0.50829
0.51386
0.51936
0.52479
0.53016
0.53545
0.54068
0.54584
0.55094
0.55596
0.56092
0.56581
0.57063
0.57538
0.58006
0.58467
0.58922
0.59369
0.5981
0.60244
0.60671
0.61091
0.61505
0.61912
0.62311
0.62705
0.63091
0.63471
0.63844
0.64211
0.64571
0.64924
0.65271
0.65612
0.65946
0.66273
0.66595
0.6691
0.67219
0.67522
0.67818
0.68109
0.68394
0.68672
0.68945
0.69211
0.69472
0.69727
0.69976
0.7022
0.70458
0.7069
0.70916
0.71137
0.71352
0.71562
0.71767
0.71966
0.72159
0.72347
0.7253
0.72707
0.72879
0.73046
0.73207
0.73364
0.73514
0.7366
0.738
0.73936
0.74065
0.7419
0.74309
0.74424
0.74532
0.74636
0.74734
0.74828
0.74915
0.74998
0.75075
0.75147
0.75214
0.75275
0.75331
0.75382
0.75427
0.75467
0.75501
0.7553
0.75554
0.75572
0.75585
0.75592
0.75594
0.75591
0.75582
0.75567
0.75547
0.75521
0.7549
0.75453
0.75411
0.75363
0.75309
0.7525
0.75185
0.75114
0.75037
0.74955
0.74866
0.74772
0.74672
0.74567
0.74455
0.74337
0.74213
0.74083
0.73947
0.73806
0.73657
0.73503
0.73343
0.73176
0.73004
0.72825
0.72639
0.72448
0.7225
0.72046
0.71835
0.71618
0.71395
0.71165
0.70929
0.70686
0.70437
0.70182
0.6992
0.69652
0.69377
0.69096
0.68808
0.68515
0.68214
0.67908
0.67595
0.67276
0.6695
0.66618
0.6628
0.65936
0.65586
0.6523
0.64868
0.645
0.64126
0.63746
0.6336
0.62969
0.62571
0.62169
0.6176
0.61346
0.60926
0.60501
0.6007
0.59633
0.59191
0.58744
0.58291
0.57832
0.57368
0.56899
0.56424
0.55944
0.55459
0.54968
0.54472
0.5397
0.53463
0.52951
0.52434
0.51911
0.51383
0.5085
0.50312
0.49769
0.49221
0.48667
0.48109
0.47546
0.46978
0.46405
0.45827
0.45244
0.44657
0.44065
0.43469
0.42868
0.42263
0.41654
0.4104
0.40422
0.398
0.39174
0.38544
0.3791
0.37273
0.36632
0.35987
0.35339
0.34687
0.34032
0.33374
0.32713
0.32049
0.31383
0.30714
0.30042
0.29367
0.2869
0.28011
0.27329
0.26644
0.25958
0.25269
0.24578
0.23885
0.23189
0.22491
0.21791
0.21089
0.20385
0.19679
0.1897
0.18259
0.17546
0.16831
0.16114
0.15394
0.14672
0.13948
0.13222
0.12493
0.11762
0.11029
0.10294
0.095557
0.088155
0.080731
0.073283
0.065812
0.058317
0.0508
0.043259
0.035695
0.028107
0.020495
0.012859
0.0051988
-0.0024867
-0.010198
-0.017935
-0.025699
-0.03349
-0.04131
-0.049158
-0.057036
-0.064944
-0.072883
-0.080855
-0.088859
-0.096897
-0.10497
-0.11308
-0.12122
-0.1294
-0.13762
-0.14588
-0.15417
-0.16251
-0.17089
-0.1793
-0.18776
-0.19627
-0.20481
-0.2134
-0.22204
-0.23071
-0.23944
-0.2482
-0.25701
-0.26587
-0.27477
-0.28372
-0.29271
-0.30174
-0.31082
-0.31994
-0.3291
-0.3383
-0.34755
-0.35683
-0.36615
-0.37551
-0.3849
-0.39433
-0.40379
-0.41328
-0.4228
-0.43234
-0.4419
-0.45149
-0.4611
-0.47072
-0.48035
-0.49
-0.49965
-0.5093
-0.51896
-0.52862
-0.53827
-0.54792
-0.55755
-0.56718
-0.57678
-0.58637
-0.59593
-0.60547
-0.61498
-0.62446
-0.6339
-0.64331
-0.65266
-0.66198
-0.67124
-0.68045
-0.6896
-0.69869
-0.70772
-0.71669
-0.72558
-0.7344
-0.74315
-0.75182
-0.76041
-0.76891
-0.77733
-0.78566
-0.7939
-0.80204
-0.81009
-0.81804
-0.82588
-0.83362
-0.84126
-0.84878
-0.8562
-0.8635
-0.87068
-0.87774
-0.88469
-0.89151
-0.8982
-0.90477
-0.9112
-0.9175
-0.92367
-0.9297
-0.93559
-0.94134
-0.94694
-0.9524
-0.95771
-0.96287
-0.96787
-0.97272
-0.97741
-0.98194
-0.98631
-0.99051
-0.99455
-0.99842
-1.0021
-1.0057
-1.009
-1.0122
-1.0152
-1.0181
-1.0207
-1.0232
-1.0255
-1.0277
-1.0296
-1.0314
-1.0329
-1.0343
-1.0355
-1.0366
-1.0374
-1.0381
-1.0385
-1.0388
-1.0389
-1.0388
-1.0385
-1.038
-1.0373
-1.0365
-1.0354
-1.0342
-1.0328
-1.0311
-1.0293
-1.0273
-1.0251
-1.0228
-1.0202
-1.0174
-1.0145
-1.0114
-1.008
-1.0045
-1.0008
-0.99696
-0.9929
-0.98866
-0.98423
-0.97962
-0.97484
-0.96987
-0.96472
-0.9594
-0.9539
-0.94823
-0.94239
-0.93637
-0.93019
-0.92383
-0.91732
-0.91063
-0.90379
-0.89678
-0.88962
-0.8823
-0.87482
-0.8672
-0.85942
-0.85149
-0.84342
-0.8352
-0.82685
-0.81835
-0.80972
-0.80096
-0.79206
-0.78304
-0.77389
-0.76461
-0.75522
-0.7457
-0.73607
-0.72633
-0.71647
-0.7065
-0.69642
-0.68623
-0.67594
-0.66554
-0.65505
-0.64445
-0.63376
-0.62297
-0.61209
-0.60111
-0.59005
-0.57889
-0.56765
-0.55633
-0.54492
-0.53343
-0.52186
-0.51021
-0.49849
-0.48669
-0.47483
-0.46289
-0.45089
-0.43882
-0.42669
-0.4145
-0.40225
-0.38995
-0.37759
-0.36519
-0.35273
-0.34024
-0.3277
-0.31512
-0.3025
-0.28986
-0.27718
-0.26448
-0.25176
-0.23902
-0.22626
-0.21349
-0.20072
-0.18794
-0.17517
-0.1624
-0.14965
-0.13691
-0.12419
-0.11149
-0.098829
-0.0862
-0.07361
-0.061064
-0.048565
-0.036119
-0.023729
-0.011399
0.0008668
0.013065
0.02519
0.037241
0.049212
0.061101
0.072904
0.084617
0.096238
0.10776
0.11919
0.13051
0.14173
0.15284
0.16383
0.17472
0.18549
0.19614
0.20668
0.21709
0.22738
0.23754
0.24758
0.2575
0.26728
0.27694
0.28646
0.29586
0.30513
0.31426
0.32326
0.33213
0.34086
0.34947
0.35794
0.36627
0.37448
0.38255
0.39049
0.39829
0.40597
0.41351
0.42092
0.42821
0.43536
0.44238
0.44928
0.45604
0.46268
0.46919
0.47558
0.48184
0.48798
0.49399
0.49989
0.50565
0.5113
0.51683
0.52224
0.52753
0.5327
0.53775
0.54269
0.54751
0.55222
0.55681
0.56128
0.56565
0.5699
0.57403
0.57806
0.58197
0.58577
0.58946
0.59305
0.59652
0.59988
0.60314
0.60629
0.60933
0.61227
0.6151
0.61783
0.62046
0.62299
0.62541
0.62774
0.62997
0.63211
0.63414
0.63609
0.63794
0.63969
0.64136
0.64294
0.64443
0.64583
0.64715
0.64838
0.64953
0.65059
0.65158
0.65248
0.65331
0.65406
0.65473
0.65533
0.65586
0.65631
0.6567
0.65701
0.65725
0.65743
0.65754
0.65759
0.65757
0.65749
0.65735
0.65715
0.65689
0.65657
0.6562
0.65577
0.65529
0.65476
0.65418
0.65354
0.65286
0.65213
0.65136
0.65054
0.64968
0.64878
0.64783
0.64685
0.64582
0.64476
0.64367
0.64254
0.64137
0.64017
0.63894
0.63767
0.63638
0.63506
0.6337
0.63232
0.63091
0.62948
0.62802
0.62653
0.62502
0.62348
0.62192
0.62034
0.61874
0.61711
0.61546
0.61379
0.6121
0.61038
0.60865
0.6069
0.60512
0.60333
0.60152
0.59969
0.59783
0.59596
0.59407
0.59216
0.59023
0.58828
0.58631
0.58433
0.58232
0.58029
0.57824
0.57617
0.57408
0.57197
0.56984
0.56769
0.56552
0.56332
0.5611
0.55886
0.5566
0.55431
0.552
0.54966
0.5473
0.54491
0.5425
0.54006
0.5376
0.53511
0.53259
0.53005
0.52747
0.52487
0.52225
0.51959
0.5169
0.51419
0.51144
0.50867
0.50587
0.50304
0.50017
0.49728
0.49436
0.49141
0.48843
0.48542
0.48238
0.47931
0.47621
0.47308
0.46992
0.46673
0.46352
0.46027
0.457
0.4537
0.45037
0.44702
0.44364
0.44023
0.4368
0.43334
0.42986
0.42636
0.42283
0.41928
0.41571
0.41212
0.40851
0.40488
0.40123
0.39756
0.39387
0.39016
0.38644
0.3827
0.37895
0.37517
0.37139
0.36759
0.36377
0.35994
0.3561
0.35225
0.34838
0.3445
0.34062
0.33672
0.33281
0.32889
0.32496
0.32103
0.31708
0.31313
0.30917
0.3052
0.30122
0.29724
0.29325
0.28925
0.28525
0.28124
0.27722
0.2732
0.26917
0.26514
0.2611
0.25706
0.25301
0.24896
0.24491
0.24085
0.23678
0.23272
0.22865
0.22458
0.2205
0.21642
0.21235
0.20826
0.20418
0.2001
0.19601
0.19193
0.18784
0.18376
0.17967
0.17558
0.17149
0.1674
0.16332
0.15922
0.15513
0.15104
0.14694
0.14285
0.13875
0.13464
0.13054
0.12643
0.12231
0.11819
0.11407
0.10993
0.1058
0.10165
0.097494
0.093331
0.089157
0.084974
0.080779
0.076573
0.072354
0.068122
0.063876
0.059616
0.05534
0.051048
0.046739
0.042413
0.038068
0.033705
0.029322
0.024918
0.020493
0.016046
0.011576
0.007083
0.0025648
-0.0019789
-0.0065491
-0.011147
-0.015773
-0.020428
-0.025114
-0.029831
-0.03458
-0.039363
-0.044179
-0.049032
-0.05392
-0.058846
-0.063809
-0.068812
-0.073855
-0.078939
-0.084065
-0.089233
-0.094445
-0.099701
-0.105
-0.11035
-0.11574
-0.12118
-0.12667
-0.13221
-0.13779
-0.14343
-0.14911
-0.15485
-0.16063
-0.16647
-0.17236
-0.1783
-0.18428
-0.19032
-0.19642
-0.20256
-0.20875
-0.21499
-0.22128
-0.22763
-0.23402
-0.24045
-0.24694
-0.25347
-0.26005
-0.26667
-0.27334
-0.28004
-0.28679
-0.29358
-0.3004
-0.30726
-0.31416
-0.32109
-0.32805
-0.33504
-0.34206
-0.3491
-0.35617
-0.36326
-0.37037
-0.3775
-0.38465
-0.39181
-0.39898
-0.40616
-0.41335
-0.42055
-0.42774
-0.43494
-0.44214
-0.44933
-0.45652
-0.46369
-0.47086
-0.47801
-0.48514
-0.49225
-0.49935
-0.50642
-0.51346
-0.52048
-0.52746
-0.53441
-0.54133
-0.54821
-0.55505
-0.56184
-0.5686
-0.5753
-0.58195
-0.58856
-0.59511
-0.6016
-0.60803
-0.6144
-0.62071
-0.62695
-0.63312
-0.63922
-0.64524
-0.65119
-0.65706
-0.66285
-0.66855
-0.67416
-0.67968
-0.68512
-0.69045
-0.69569
-0.70082
-0.70586
-0.71078
-0.7156
-0.7203
-0.72489
-0.72937
-0.73373
-0.73796
-0.74208
-0.74607
-0.74993
-0.75367
-0.75727
-0.76074
-0.76408
-0.76728
-0.77035
-0.77328
-0.77607
-0.77872
-0.78122
-0.78358
-0.7858
-0.78787
-0.7898
-0.79157
-0.7932
-0.79468
-0.79601
-0.79718
-0.79821
-0.79908
-0.7998
-0.80037
-0.80079
-0.80105
-0.80115
-0.8011
-0.8009
-0.80055
-0.80003
-0.79937
-0.79855
-0.79758
-0.79645
-0.79516
-0.79373
-0.79214
-0.7904
-0.7885
-0.78645
-0.78425
-0.7819
-0.7794
-0.77674
-0.77394
-0.77098
-0.76788
-0.76463
-0.76123
-0.75769
-0.754
-0.75016
-0.74618
-0.74206
-0.7378
-0.7334
-0.72885
-0.72418
-0.71936
-0.71441
-0.70933
-0.70411
-0.69877
-0.69329
-0.68769
-0.68197
-0.67612
-0.67015
-0.66407
-0.65786
-0.65155
-0.64512
-0.63858
-0.63193
-0.62517
-0.61831
-0.61135
-0.60429
-0.59713
-0.58987
-0.58251
-0.57507
-0.56753
-0.55991
-0.55219
-0.5444
-0.53652
-0.52856
-0.52052
-0.51241
-0.50422
-0.49596
-0.48764
-0.47924
-0.47078
-0.46226
-0.45368
-0.44504
-0.43635
-0.4276
-0.41881
-0.40997
-0.40108
-0.39216
-0.38319
-0.3742
-0.36517
-0.35611
-0.34703
-0.33792
-0.3288
-0.31966
-0.31051
-0.30134
-0.29217
-0.283
-0.27382
-0.26464
-0.25546
-0.24628
-0.23711
-0.22795
-0.21881
-0.20967
-0.20055
-0.19144
-0.18236
-0.17329
-0.16425
-0.15524
-0.14624
-0.13728
-0.12835
-0.11945
-0.11058
-0.10175
-0.092954
-0.084198
-0.075482
-0.066809
-0.05818
-0.049597
-0.041062
-0.032576
-0.024142
-0.015761
-0.0074357
0.00083298
0.0090427
0.017192
0.025278
0.033301
0.041259
0.04915
0.056973
0.064727
0.07241
0.080022
0.087562
0.095029
0.10242
0.10974
0.11698
0.12415
0.13124
0.13825
0.14518
0.15204
0.15882
0.16552
0.17214
0.17868
0.18514
0.19152
0.19782
0.20404
0.21017
0.21623
0.22221
0.2281
0.23392
0.23965
0.2453
0.25087
0.25635
0.26176
0.26708
0.27232
0.27747
0.28254
0.28754
0.29244
0.29727
0.30201
0.30667
0.31125
0.31574
0.32016
0.32449
0.32875
0.33292
0.33702
0.34103
0.34497
0.34883
0.35262
0.35633
0.35997
0.36353
0.36702
0.37044
0.37379
0.37707
0.38028
0.38342
0.38649
0.3895
0.39244
0.39532
0.39814
0.40089
0.40359
0.40622
0.40879
0.41131
0.41377
0.41618
0.41852
0.42082
0.42306
0.42525
0.42739
0.42948
0.43152
0.43351
0.43545
0.43734
0.43919
0.44099
0.44275
0.44446
0.44613
0.44776
0.44934
0.45088
0.45238
0.45384
0.45526
0.45664
0.45798
0.45928
0.46054
0.46176
0.46294
0.46409
0.4652
0.46627
0.4673
0.46831
0.46927
0.47021
0.47111
0.47197
0.47281
0.47361
0.47438
0.47512
0.47583
0.47652
0.47717
0.4778
0.47839
0.47897
0.47951
0.48003
0.48053
0.481
0.48145
0.48188
0.48228
0.48267
0.48303
0.48337
0.4837
0.484
0.48429
0.48456
0.48481
0.48505
0.48527
0.48547
0.48566
0.48584
0.486
0.48616
0.4863
0.48642
0.48654
0.48665
0.48675
0.48683
0.48691
0.48698
0.48704
0.4871
0.48715
0.48719
0.48722
0.48725
0.48728
0.4873
0.48731
0.48732
0.48733
0.48733
0.48733
0.48733
0.48733
0.48732
0.48731
0.4873
0.48729
0.48727
0.48726
0.48724
0.48723
0.48721
0.4872
0.48718
0.48717
0.48715
0.48714
0.48712
0.48711
0.48709
0.48708
0.48707
0.48706
0.48705
0.48704
0.48703
0.48702
0.48701
0.487
0.48699
0.48698
0.48697
0.48696
0.48694
0.48693
0.48691
0.48689
0.48687
0.48685
0.48683
0.4868
0.48676
0.48673
0.48669
0.48664
0.48659
0.48654
0.48647
0.4864
0.48633
0.48625
0.48615
0.48605
0.48595
0.48583
0.4857
0.48556
0.48542
0.48526
0.48508
0.4849
0.4847
0.48449
0.48427
0.48403
0.48377
0.4835
0.48321
0.4829
0.48258
0.48224
0.48188
0.4815
0.4811
0.48067
0.48023
0.47976
0.47928
0.47876
0.47823
0.47767
0.47708
0.47647
0.47583
0.47517
0.47447
0.47375
0.473
0.47222
0.47142
0.47058
0.46971
0.46881
0.46787
0.46691
0.46591
0.46488
0.46381
0.46271
0.46157
0.4604
0.45919
0.45794
0.45665
0.45533
0.45396
0.45255
0.4511
0.4496
0.44806
0.44648
0.44485
0.44317
0.44144
0.43967
0.43784
0.43596
0.43403
0.43204
0.43
0.42791
0.42575
0.42354
0.42127
0.41894
0.41655
0.41409
0.41158
0.40899
0.40634
0.40363
0.40084
0.39799
0.39507
0.39208
0.38901
0.38587
0.38266
0.37937
0.37601
0.37256
0.36904
0.36544
0.36176
0.35799
0.35414
0.3502
0.34617
0.34206
0.33786
0.33356
0.32918
0.3247
0.32012
0.31545
0.31068
0.30581
0.30084
0.29577
0.2906
0.28533
0.27995
0.27446
0.26887
0.26317
0.25736
0.25144
0.24541
0.23927
0.23302
0.22666
0.22019
0.2136
0.2069
0.20009
0.19316
0.18612
0.17896
0.17169
0.1643
0.1568
0.14919
0.14145
0.13361
0.12564
0.11757
0.10937
0.10107
0.092643
0.084105
0.075454
0.06669
0.057812
0.048822
0.03972
0.030508
0.021187
0.011756
0.0022187
-0.0074251
-0.017174
-0.027025
-0.036978
-0.047031
-0.057181
-0.067427
-0.077767
-0.088198
-0.098717
-0.10932
-0.12001
-0.13078
-0.14162
-0.15254
-0.16353
-0.17459
-0.18571
-0.19689
-0.20813
-0.21943
-0.23078
-0.24217
-0.25361
-0.2651
-0.27663
-0.28819
-0.29979
-0.31141
-0.32307
-0.33475
-0.34645
-0.35818
-0.36991
-0.38166
-0.39342
-0.40519
-0.41696
-0.42873
-0.44049
-0.45225
-0.46399
-0.47573
-0.48744
-0.49913
-0.5108
-0.52244
-0.53405
-0.54561
-0.55714
-0.56862
-0.58006
-0.59143
-0.60275
-0.61401
-0.6252
-0.63632
-0.64736
-0.65832
-0.6692
-0.67998
-0.69068
-0.70127
-0.71177
-0.72216
-0.73244
-0.74261
-0.75266
-0.76259
-0.77239
-0.78207
-0.79161
-0.80102
-0.81028
-0.8194
-0.82838
-0.8372
-0.84587
-0.85438
-0.86273
-0.87091
-0.87893
-0.88678
-0.89445
-0.90195
-0.90927
-0.91641
-0.92336
-0.93013
-0.93671
-0.9431
-0.9493
-0.9553
-0.9611
-0.9667
-0.97211
-0.97731
-0.98231
-0.98709
-0.99168
-0.99605
-1.0002
-1.0042
-1.0079
-1.0114
-1.0147
-1.0178
-1.0207
-1.0233
-1.0257
-1.0279
-1.0299
-1.0316
-1.0332
-1.0345
-1.0355
-1.0364
-1.037
-1.0374
-1.0375
-1.0374
-1.0371
-1.0366
-1.0358
-1.0348
-1.0336
-1.0321
-1.0304
-1.0285
-1.0263
-1.024
-1.0214
-1.0185
-1.0155
-1.0122
-1.0087
-1.005
-1.0011
-0.99689
-0.99252
-0.98793
-0.98313
-0.97812
-0.9729
-0.96747
-0.96185
-0.95602
-0.94999
-0.94376
-0.93735
-0.93074
-0.92394
-0.91697
-0.90981
-0.90247
-0.89496
-0.88728
-0.87944
-0.87142
-0.86325
-0.85493
-0.84644
-0.83781
-0.82903
-0.82011
-0.81105
-0.80185
-0.79252
-0.78306
-0.77347
-0.76376
-0.75392
-0.74397
-0.73391
-0.72374
-0.71346
-0.70308
-0.6926
-0.68202
-0.67135
-0.6606
-0.64975
-0.63883
-0.62783
-0.61675
-0.60561
-0.5944
-0.58312
-0.57179
-0.5604
-0.54896
-0.53748
-0.52595
-0.51439
-0.50279
-0.49116
-0.4795
-0.46783
-0.45613
-0.44442
-0.4327
-0.42097
-0.40924
-0.3975
-0.38577
-0.37404
-0.36231
-0.3506
-0.33889
-0.3272
-0.31553
-0.30387
-0.29224
-0.28063
-0.26904
-0.25747
-0.24594
-0.23443
-0.22296
-0.21151
-0.2001
-0.18873
-0.17739
-0.16609
-0.15483
-0.14361
-0.13243
-0.1213
-0.1102
-0.099157
-0.088155
-0.0772
-0.066293
-0.055435
-0.044627
-0.03387
-0.023165
-0.012513
-0.0019154
0.0086267
0.019112
0.02954
0.03991
0.050219
0.060467
0.070652
0.080773
0.09083
0.10082
0.11074
0.12059
0.13037
0.14008
0.14971
0.15926
0.16874
0.17814
0.18745
0.19668
0.20583
0.21489
0.22387
0.23275
0.24155
0.25026
0.25887
0.2674
0.27583
0.28417
0.29241
0.30056
0.30861
0.31657
0.32444
0.3322
0.33987
0.34745
0.35492
0.3623
0.36958
0.37677
0.38385
0.39084
0.39773
0.40452
0.41121
0.41781
0.4243
0.4307
0.437
0.4432
0.4493
0.45531
0.46121
0.46701
0.47272
0.47833
0.48384
0.48925
0.49456
0.49977
0.50489
0.5099
0.51483
0.51965
0.52438
0.52901
0.53354
0.53799
0.54233
0.54659
0.55075
0.55482
0.55879
0.56268
0.56647
0.57018
0.57379
0.57732
0.58076
0.58412
0.58739
0.59057
0.59367
0.59669
0.59962
0.60248
0.60525
0.60794
0.61055
0.61308
0.61554
0.61792
0.62022
0.62244
0.6246
0.62667
0.62867
0.63061
0.63246
0.63425
0.63597
0.63761
0.63919
0.6407
0.64214
0.64351
0.64482
0.64606
0.64723
0.64835
0.64939
0.65038
0.6513
0.65216
0.65296
0.6537
0.65438
0.655
0.65556
0.65606
0.65651
0.65689
0.65722
0.6575
0.65772
0.65788
0.65799
0.65804
0.65804
0.65799
0.65788
0.65772
0.65751
0.65724
0.65692
0.65655
0.65613
0.65565
0.65513
0.65455
0.65392
0.65325
0.65251
0.65173
0.6509
0.65002
0.64908
0.6481
0.64706
0.64597
0.64483
0.64364
0.64239
0.6411
0.63975
0.63835
0.63689
0.63539
0.63383
0.63221
0.63055
0.62883
0.62705
0.62522
0.62334
0.6214
0.61941
0.61736
0.61526
0.6131
0.61089
0.60862
0.6063
0.60392
0.60149
0.599
0.59645
0.59385
0.5912
0.58849
0.58572
0.5829
0.58002
0.57709
0.5741
0.57106
0.56796
0.56481
0.5616
0.55834
0.55503
0.55167
0.54825
0.54478
0.54126
0.53768
0.53406
0.53039
0.52667
0.5229
0.51908
0.51521
0.5113
0.50735
0.50335
0.4993
0.49522
0.49109
0.48692
0.48272
0.47847
0.47419
0.46988
0.46553
0.46115
0.45674
0.4523
0.44783
0.44333
0.43881
0.43426
0.42969
0.4251
0.42048
0.41585
0.41119
0.40652
0.40183
0.39713
0.39241
0.38767
0.38292
0.37816
0.37339
0.36861
0.36382
0.35902
0.35421
0.34939
0.34457
0.33974
0.3349
0.33006
0.32521
0.32036
0.3155
0.31064
0.30578
0.30091
0.29604
0.29116
0.28628
0.2814
0.27651
0.27163
0.26673
0.26184
0.25694
0.25204
0.24714
0.24223
0.23732
0.2324
0.22748
0.22256
0.21764
0.21271
0.20777
0.20284
0.1979
0.19295
0.18801
0.18305
0.1781
0.17314
0.16817
0.16321
0.15824
0.15326
0.14828
0.1433
0.13831
0.13331
0.12832
0.12331
0.1183
0.11329
0.10827
0.10325
0.098218
0.093182
0.08814
0.083092
0.078038
0.072976
0.067909
0.062834
0.057753
0.052666
0.047571
0.04247
0.037362
0.032247
0.027126
0.021998
0.016864
0.011724
0.0065779
0.0014265
-0.00373
-0.0088914
-0.014057
-0.019227
-0.0244
-0.029576
-0.034754
-0.039934
-0.045117
-0.0503
-0.055485
-0.06067
-0.065856
-0.071042
-0.076228
-0.081414
-0.0866
-0.091786
-0.096971
-0.10216
-0.10734
-0.11252
-0.11771
-0.12289
-0.12807
-0.13325
-0.13843
-0.14361
-0.14879
-0.15396
-0.15914
-0.16431
-0.16949
-0.17466
-0.17983
-0.185
-0.19016
-0.19533
-0.20049
-0.20565
-0.21081
-0.21596
-0.22111
-0.22626
-0.2314
-0.23654
-0.24167
-0.2468
-0.25193
-0.25704
-0.26215
-0.26726
-0.27236
-0.27745
-0.28253
-0.28761
-0.29268
-0.29775
-0.3028
-0.30785
-0.31289
-0.31792
-0.32295
-0.32796
-0.33297
-0.33797
-0.34296
-0.34794
-0.35291
-0.35787
-0.36282
-0.36776
-0.37269
-0.37761
-0.38251
-0.38741
-0.39229
-0.39716
-0.40202
-0.40687
-0.4117
-0.41651
-0.42131
-0.42609
-0.43086
-0.4356
-0.44033
-0.44504
-0.44973
-0.4544
-0.45904
-0.46367
-0.46827
-0.47285
-0.4774
-0.48193
-0.48643
-0.4909
-0.49535
-0.49977
-0.50415
-0.50851
-0.51284
-0.51714
-0.5214
-0.52563
-0.52982
-0.53398
-0.53811
-0.54219
-0.54624
-0.55025
-0.55421
-0.55814
-0.56202
-0.56586
-0.56965
-0.5734
-0.5771
-0.58075
-0.58435
-0.58789
-0.59139
-0.59483
-0.59821
-0.60154
-0.60481
-0.60801
-0.61116
-0.61424
-0.61725
-0.6202
-0.62309
-0.6259
-0.62864
-0.63132
-0.63391
-0.63644
-0.63889
-0.64126
-0.64356
-0.64577
-0.64791
-0.64996
-0.65193
-0.65382
-0.65562
-0.65733
-0.65896
-0.66049
-0.66194
-0.6633
-0.66456
-0.66573
-0.66681
-0.66779
-0.66867
-0.66946
-0.67015
-0.67074
-0.67122
-0.67161
-0.67189
-0.67207
-0.67215
-0.67212
-0.67198
-0.67174
-0.67138
-0.67092
-0.67035
-0.66967
-0.66888
-0.66798
-0.66696
-0.66584
-0.6646
-0.66325
-0.66179
-0.66021
-0.65852
-0.65671
-0.6548
-0.65276
-0.65062
-0.64836
-0.64599
-0.64351
-0.64091
-0.6382
-0.63538
-0.63245
-0.6294
-0.62625
-0.62299
-0.61962
-0.61614
-0.61255
-0.60886
-0.60507
-0.60117
-0.59717
-0.59306
-0.58886
-0.58456
-0.58016
-0.57567
-0.57109
-0.56641
-0.56164
-0.55678
-0.55183
-0.54679
-0.54167
-0.53646
-0.53116
-0.52578
-0.52032
-0.51478
-0.50916
-0.50346
-0.49768
-0.49182
-0.48588
-0.47987
-0.47378
-0.46762
-0.46139
-0.45508
-0.4487
-0.44225
-0.43573
-0.42914
-0.42249
-0.41576
-0.40897
-0.40211
-0.39519
-0.38821
-0.38116
-0.37406
-0.36689
-0.35967
-0.35238
-0.34504
-0.33765
-0.3302
-0.3227
-0.31515
-0.30755
-0.2999
-0.29221
-0.28447
-0.27669
-0.26887
-0.26101
-0.25311
-0.24518
-0.23722
-0.22923
-0.22121
-0.21317
-0.20511
-0.19702
-0.18892
-0.18081
-0.17268
-0.16455
-0.15641
-0.14827
-0.14012
-0.13198
-0.12384
-0.11571
-0.10758
-0.099463
-0.091359
-0.083269
-0.075195
-0.067139
-0.059102
-0.051087
-0.043095
-0.035129
-0.02719
-0.019279
-0.011398
-0.0035497
0.0042651
0.012045
0.019787
0.027491
0.035154
0.042776
0.050354
0.057887
0.065374
0.072811
0.080199
0.087535
0.094817
0.10204
0.10921
0.11633
0.12338
0.13037
0.13729
0.14415
0.15094
0.15767
0.16432
0.17091
0.17742
0.18386
0.19022
0.19651
0.20273
0.20886
0.21492
0.22091
0.22681
0.23263
0.23838
0.24404
0.24962
0.25512
0.26054
0.26587
0.27113
0.2763
0.28138
0.28639
0.2913
0.29614
0.30089
0.30555
0.31013
0.31463
0.31904
0.32336
0.3276
0.33175
0.33582
0.33979
0.34369
0.34749
0.35121
0.35484
0.35839
0.36185
0.36522
0.36851
0.3717
0.37482
0.37785
0.38079
0.38365
0.38642
0.38911
0.39171
0.39424
0.39668
0.39904
0.40132
0.40351
0.40563
0.40767
0.40964
0.41152
0.41333
0.41507
0.41673
0.41831
0.41983
0.42127
0.42264
0.42394
0.42517
0.42634
0.42744
0.42847
0.42944
0.43034
0.43118
0.43196
0.43268
0.43334
0.43394
0.43448
0.43497
0.4354
0.43578
0.4361
0.43637
0.43659
0.43677
0.43689
0.43697
0.437
0.43699
0.43693
0.43684
0.4367
0.43652
0.43631
0.43606
0.43577
0.43545
0.4351
0.43471
0.4343
0.43385
0.43338
0.43289
0.43236
0.43182
0.43125
0.43066
0.43006
0.42943
0.42879
0.42813
0.42746
0.42678
0.42608
0.42538
0.42466
0.42394
0.42321
0.42248
0.42174
0.421
0.42026
0.41951
0.41877
0.41803
0.41729
0.41656
0.41583
0.4151
0.41438
0.41367
0.41297
0.41227
0.41159
0.41091
0.41025
0.4096
0.40896
0.40833
0.40772
0.40712
0.40653
0.40597
0.40541
0.40488
0.40436
0.40386
0.40337
0.4029
0.40245
0.40202
0.40161
0.40122
0.40085
0.4005
0.40016
0.39985
0.39955
0.39928
0.39903
0.3988
0.39859
0.3984
0.39823
0.39808
0.39796
0.39786
0.39778
0.39772
0.39768
0.39767
0.39768
0.39771
0.39777
0.39785
0.39795
0.39808
0.39823
0.3984
0.3986
0.39882
0.39906
0.39932
0.39961
0.39992
0.40025
0.4006
0.40097
0.40137
0.40178
0.40221
0.40265
0.40312
0.4036
0.4041
0.40461
0.40513
0.40567
0.40622
0.40678
0.40735
0.40793
0.40851
0.4091
0.4097
0.4103
0.4109
0.4115
0.4121
0.4127
0.41329
0.41388
0.41447
0.41504
0.41561
0.41616
0.4167
0.41723
0.41774
0.41823
0.41871
0.41916
0.41959
0.41999
0.42037
0.42073
0.42105
0.42134
0.42161
0.42183
0.42203
0.42218
0.4223
0.42238
0.42241
0.4224
0.42235
0.42226
0.42211
0.42192
0.42167
0.42138
0.42103
0.42063
0.42017
0.41966
0.41908
0.41845
0.41776
0.41701
0.41619
0.41531
0.41436
0.41335
0.41227
0.41113
0.40991
0.40862
0.40727
0.40584
0.40434
0.40277
0.40112
0.3994
0.3976
0.39573
0.39378
0.39176
0.38966
0.38748
0.38523
0.3829
0.38049
0.378
0.37544
0.3728
0.37008
0.36729
0.36442
0.36147
0.35844
0.35533
0.35215
0.34889
0.34555
0.34213
0.33864
0.33507
0.33142
0.32769
0.32388
0.31999
0.31603
0.31199
0.30787
0.30367
0.2994
0.29505
0.29062
0.28611
0.28153
0.27687
0.27213
0.26732
0.26243
0.25747
0.25243
0.24731
0.24213
0.23687
0.23154
0.22613
0.22066
0.21512
0.2095
0.20382
0.19807
0.19226
0.18638
0.18043
0.17442
0.16835
0.16222
0.15602
0.14976
0.14345
0.13707
0.13064
0.12415
0.1176
0.111
0.10434
0.097632
0.09087
0.084056
0.077192
0.070279
0.063316
0.056306
0.049248
0.042143
0.034993
0.027797
0.020555
0.01327
0.0059403
-0.0014328
-0.0088491
-0.016308
-0.023809
-0.031353
-0.038937
-0.046563
-0.05423
-0.061938
-0.069685
-0.077473
-0.085299
-0.093165
-0.10107
-0.10901
-0.11699
-0.12501
-0.13306
-0.14115
-0.14928
-0.15743
-0.16563
-0.17385
-0.18211
-0.1904
-0.19872
-0.20707
-0.21545
-0.22385
-0.23228
-0.24074
-0.24922
-0.25772
-0.26625
-0.27479
-0.28336
-0.29195
-0.30055
-0.30918
-0.31782
-0.32648
-0.33515
-0.34384
-0.35255
-0.36127
-0.37
-0.37874
-0.3875
-0.39626
-0.40504
-0.41383
-0.42262
-0.43142
-0.44023
-0.44904
-0.45786
-0.46668
-0.47551
-0.48433
-0.49316
-0.50198
-0.5108
-0.51961
-0.52842
-0.53722
-0.54602
-0.5548
-0.56356
-0.57231
-0.58105
-0.58976
-0.59845
-0.60712
-0.61576
-0.62437
-0.63295
-0.64149
-0.64999
-0.65845
-0.66687
-0.67523
-0.68355
-0.69181
-0.7
-0.70814
-0.71621
-0.7242
-0.73212
-0.73996
-0.74771
-0.75537
-0.76294
-0.77041
-0.77778
-0.78504
-0.79219
-0.79923
-0.80615
-0.81296
-0.81963
-0.82618
-0.8326
-0.83889
-0.84504
-0.85104
-0.85691
-0.86263
-0.8682
-0.87362
-0.87888
-0.88398
-0.88893
-0.89372
-0.89834
-0.90279
-0.90707
-0.91118
-0.91512
-0.91889
-0.92247
-0.92588
-0.9291
-0.93214
-0.93499
-0.93766
-0.94014
-0.94243
-0.94453
-0.94643
-0.94814
-0.94965
-0.95096
-0.95208
-0.953
-0.95371
-0.95423
-0.95454
-0.95465
-0.95456
-0.95426
-0.95376
-0.95306
-0.95215
-0.95104
-0.94972
-0.9482
-0.94648
-0.94455
-0.94242
-0.94009
-0.93755
-0.93482
-0.93188
-0.92874
-0.92541
-0.92187
-0.91814
-0.91421
-0.91008
-0.90576
-0.90125
-0.89654
-0.89164
-0.88655
-0.88127
-0.8758
-0.87015
-0.86431
-0.85828
-0.85207
-0.84569
-0.83912
-0.83237
-0.82545
-0.81835
-0.81109
-0.80365
-0.79604
-0.78827
-0.78033
-0.77223
-0.76397
-0.75556
-0.74699
-0.73827
-0.7294
-0.72039
-0.71123
-0.70193
-0.6925
-0.68293
-0.67323
-0.6634
-0.65344
-0.64336
-0.63317
-0.62285
-0.61243
-0.60189
-0.59124
-0.58049
-0.56963
-0.55868
-0.54763
-0.53648
-0.52524
-0.51392
-0.50251
-0.49102
-0.47944
-0.46779
-0.45607
-0.44428
-0.43242
-0.4205
-0.40851
-0.39647
-0.38437
-0.37223
-0.36003
-0.34779
-0.33552
-0.3232
-0.31085
-0.29848
-0.28607
-0.27365
-0.26121
-0.24875
-0.23629
-0.22382
-0.21135
-0.19888
-0.18642
-0.17396
-0.16152
-0.1491
-0.13669
-0.12431
-0.11195
-0.099619
-0.087321
-0.075058
-0.062832
-0.050647
-0.038504
-0.026407
-0.014358
-0.0023601
0.0095844
0.021473
0.033303
0.045072
0.056777
0.068416
0.079988
0.091488
0.10291
0.11427
0.12554
0.13673
0.14784
0.15887
0.16981
0.18065
0.19141
0.20207
0.21263
0.22309
0.23345
0.2437
0.25385
0.26389
0.27382
0.28363
0.29333
0.30291
0.31238
0.32173
0.33095
0.34006
0.34904
0.3579
0.36663
0.37524
0.38373
0.39208
0.40031
0.40841
0.41638
0.42422
0.43193
0.43952
0.44697
0.45429
0.46148
0.46854
0.47547
0.48227
0.48893
0.49547
0.50187
0.50815
0.51429
0.5203
0.52618
0.53193
0.53755
0.54303
0.54839
0.55362
0.55872
0.56368
0.56852
0.57323
0.57782
0.58227
0.5866
0.5908
0.59488
0.59883
0.60266
0.60636
0.60994
0.61341
0.61675
0.61997
0.62308
0.62606
0.62893
0.63169
0.63434
0.63687
0.63929
0.6416
0.6438
0.64589
0.64788
0.64976
0.65154
0.65322
0.6548
0.65627
0.65765
0.65893
0.66012
0.66121
0.66221
0.66311
0.66393
0.66466
0.66529
0.66585
0.66632
0.6667
0.667
0.66723
0.66737
0.66743
0.66742
0.66733
0.66717
0.66693
0.66662
0.66624
0.66579
0.66527
0.66469
0.66404
0.66333
0.66255
0.66171
0.66081
0.65985
0.65883
0.65775
0.65662
0.65543
0.65419
0.65289
0.65154
0.65014
0.64869
0.64719
0.64565
0.64405
0.64241
0.64073
0.63899
0.63722
0.6354
0.63355
0.63165
0.62971
0.62773
0.62572
0.62366
0.62157
0.61945
0.61728
0.61509
0.61286
0.6106
0.6083
0.60597
0.60362
0.60123
0.59881
0.59636
0.59389
0.59138
0.58885
0.58629
0.58371
0.5811
0.57846
0.57581
0.57312
0.57042
0.56769
0.56494
0.56216
0.55937
0.55656
0.55373
0.55087
0.548
0.54511
0.54221
0.53929
0.53635
0.5334
0.53043
0.52744
0.52445
0.52144
0.51841
0.51538
0.51233
0.50927
0.5062
0.50311
0.50002
0.49691
0.49379
0.49067
0.48753
0.48438
0.48122
0.47806
0.47488
0.47169
0.4685
0.46529
0.46208
0.45886
0.45563
0.45239
0.44914
0.44588
0.44262
0.43935
0.43607
0.43278
0.42949
0.42618
0.42288
0.41956
0.41624
0.41291
0.40958
0.40624
0.40289
0.39954
0.39618
0.39282
0.38945
0.38607
0.38269
0.3793
0.37591
0.37251
0.36911
0.3657
0.36228
0.35885
0.35542
0.35198
0.34854
0.34509
0.34163
0.33816
0.33468
0.3312
0.3277
0.3242
0.32069
0.31717
0.31364
0.3101
0.30656
0.303
0.29943
0.29586
0.29227
0.28867
0.28506
0.28145
0.27782
0.27418
0.27054
0.26688
0.26321
0.25953
0.25584
0.25214
0.24843
0.24471
0.24097
0.23723
0.23347
0.2297
0.22591
0.22212
0.2183
0.21448
0.21064
0.20679
0.20292
0.19903
0.19513
0.19121
0.18728
0.18332
0.17935
0.17537
0.17136
0.16733
0.16329
0.15922
0.15514
0.15103
0.14691
0.14276
0.13859
0.1344
0.13019
0.12596
0.12171
0.11743
0.11313
0.10881
0.10446
0.1001
0.095703
0.091287
0.086846
0.08238
0.077888
0.073371
0.068826
0.064255
0.059655
0.055027
0.05037
0.045684
0.040967
0.036219
0.03144
0.026628
0.021784
0.016906
0.011994
0.0070467
0.0020645
-0.0029537
-0.0080084
-0.0131
-0.01823
-0.023397
-0.028603
-0.033848
-0.039133
-0.044457
-0.049822
-0.055227
-0.060673
-0.06616
-0.071688
-0.077258
-0.082868
-0.08852
-0.094214
-0.099948
-0.10572
-0.11154
-0.1174
-0.12329
-0.12923
-0.1352
-0.14122
-0.14727
-0.15336
-0.15948
-0.16564
-0.17184
-0.17806
-0.18432
-0.19061
-0.19693
-0.20328
-0.20965
-0.21605
-0.22247
-0.22892
-0.23539
-0.24188
-0.24839
-0.25491
-0.26146
-0.26802
-0.2746
-0.2812
-0.28781
-0.29443
-0.30106
-0.3077
-0.31436
-0.32102
-0.32769
-0.33437
-0.34105
-0.34774
-0.35443
-0.36112
-0.36782
-0.37451
-0.3812
-0.38789
-0.39458
-0.40126
-0.40794
-0.41461
-0.42127
-0.42792
-0.43455
-0.44118
-0.44778
-0.45437
-0.46095
-0.4675
-0.47403
-0.48053
-0.48702
-0.49347
-0.4999
-0.50629
-0.51266
-0.51899
-0.52529
-0.53156
-0.53779
-0.54397
-0.55012
-0.55623
-0.56229
-0.56831
-0.57429
-0.58021
-0.58609
-0.59192
-0.59769
-0.60341
-0.60908
-0.61469
-0.62024
-0.62573
-0.63116
-0.63652
-0.64182
-0.64706
-0.65222
-0.65732
-0.66234
-0.66728
-0.67215
-0.67695
-0.68166
-0.68629
-0.69084
-0.6953
-0.69967
-0.70395
-0.70814
-0.71223
-0.71623
-0.72014
-0.72394
-0.72765
-0.73125
-0.73474
-0.73814
-0.74142
-0.7446
-0.74766
-0.75062
-0.75346
-0.75618
-0.75879
-0.76129
-0.76366
-0.76592
-0.76805
-0.77006
-0.77194
-0.77371
-0.77534
-0.77685
-0.77823
-0.77948
-0.7806
-0.78159
-0.78245
-0.78317
-0.78377
-0.78422
-0.78455
-0.78473
-0.78478
-0.78469
-0.78447
-0.7841
-0.7836
-0.78296
-0.78218
-0.78126
-0.78019
-0.77899
-0.77765
-0.77616
-0.77454
-0.77277
-0.77086
-0.76881
-0.76662
-0.76429
-0.76181
-0.7592
-0.75644
-0.75354
-0.75051
-0.74733
-0.74401
-0.74056
-0.73696
-0.73323
-0.72936
-0.72535
-0.7212
-0.71691
-0.71248
-0.70792
-0.70322
-0.69839
-0.69341
-0.6883
-0.68306
-0.67768
-0.67217
-0.66652
-0.66074
-0.65482
-0.64878
-0.6426
-0.63629
-0.62985
-0.62328
-0.61658
-0.60976
-0.60281
-0.59573
-0.58852
-0.5812
-0.57375
-0.56618
-0.55849
-0.55069
-0.54276
-0.53473
-0.52658
-0.51832
-0.50995
-0.50147
-0.49289
-0.4842
-0.47542
-0.46653
-0.45756
-0.44849
-0.43933
-0.43008
-0.42075
-0.41134
-0.40185
-0.39229
-0.38266
-0.37296
-0.36321
-0.35339
-0.34352
-0.3336
-0.32363
-0.31362
-0.30357
-0.29349
-0.28338
-0.27324
-0.26307
-0.25289
-0.24269
-0.23248
-0.22227
-0.21204
-0.20182
-0.1916
-0.18139
-0.17119
-0.16101
-0.15084
-0.14069
-0.13057
-0.12048
-0.11043
-0.1004
-0.090418
-0.080476
-0.070577
-0.060726
-0.050924
-0.041175
-0.03148
-0.021842
-0.012262
-0.0027446
0.00671
0.016099
0.025421
0.034675
0.043857
0.052967
0.062003
0.070964
0.079847
0.088652
0.097377
0.10602
0.11458
0.12306
0.13145
0.13976
0.14797
0.1561
0.16414
0.17209
0.17994
0.18771
0.19537
0.20295
0.21042
0.2178
0.22508
0.23226
0.23934
0.24632
0.25319
0.25997
0.26664
0.27321
0.27968
0.28605
0.29231
0.29847
0.30453
0.31049
0.31634
0.32209
0.32774
0.33329
0.33874
0.34409
0.34934
0.35449
0.35954
0.36449
0.36934
0.3741
0.37877
0.38333
0.3878
0.39218
0.39647
0.40066
0.40476
0.40877
0.41269
0.41652
0.42026
0.42391
0.42748
0.43096
0.43435
0.43766
0.44088
0.44402
0.44707
0.45005
0.45294
0.45575
0.45847
0.46112
0.46368
0.46617
0.46857
0.4709
0.47314
0.47531
0.4774
0.47941
0.48133
0.48318
0.48496
0.48665
0.48826
0.4898
0.49125
0.49263
0.49394
0.49516
0.49631
0.49738
0.49838
0.4993
0.50014
0.50091
0.50161
0.50223
0.50278
0.50326
0.50367
0.50401
0.50428
0.50448
0.50461
0.50467
0.50467
0.5046
0.50447
0.50427
0.50401
0.50369
0.50331
0.50287
0.50237
0.50181
0.5012
0.50053
0.4998
0.49903
0.4982
0.49732
0.49639
0.49542
0.49439
0.49332
0.49221
0.49105
0.48985
0.48861
0.48734
0.48602
0.48467
0.48328
0.48186
0.4804
0.47892
0.4774
0.47586
0.47429
0.4727
0.47108
0.46944
0.46778
0.46609
0.46439
0.46268
0.46095
0.4592
0.45744
0.45567
0.45389
0.4521
0.4503
0.44849
0.44668
0.44486
0.44304
0.44122
0.4394
0.43758
0.43575
0.43393
0.43212
0.4303
0.42849
0.42669
0.4249
0.42311
0.42133
0.41956
0.4178
0.41605
0.41431
0.41258
0.41087
0.40918
0.40749
0.40583
0.40417
0.40254
0.40092
0.39933
0.39775
0.39619
0.39465
0.39313
0.39163
0.39015
0.38869
0.38725
0.38584
0.38445
0.38308
0.38173
0.3804
0.3791
0.37782
0.37656
0.37532
0.37411
0.37291
0.37174
0.37059
0.36946
0.36836
0.36727
0.3662
0.36516
0.36413
0.36313
0.36214
0.36117
0.36022
0.35928
0.35837
0.35747
0.35658
0.35571
0.35485
0.35401
0.35318
0.35236
0.35156
0.35077
0.34998
0.34921
0.34844
0.34768
0.34693
0.34619
0.34545
0.34472
0.34399
0.34327
0.34255
0.34183
0.34112
0.3404
0.33969
0.33897
0.33825
0.33754
0.33682
0.33609
0.33536
0.33463
0.3339
0.33315
0.3324
0.33165
0.33089
0.33011
0.32933
0.32854
0.32774
0.32693
0.32611
0.32528
0.32444
0.32358
0.32271
0.32183
0.32093
0.32002
0.31909
0.31815
0.31719
0.31621
0.31521
0.3142
0.31317
0.31212
0.31105
0.30995
0.30884
0.3077
0.30654
0.30535
0.30414
0.30291
0.30165
0.30036
0.29904
0.2977
0.29633
0.29492
0.29349
0.29203
0.29053
0.289
0.28744
0.28584
0.28421
0.28254
0.28084
0.2791
0.27732
0.2755
0.27365
0.27175
0.26982
0.26785
0.26583
0.26377
0.26167
0.25953
0.25734
0.25511
0.25283
0.25051
0.24814
0.24572
0.24325
0.24074
0.23817
0.23555
0.23288
0.23016
0.22738
0.22455
0.22167
0.21873
0.21573
0.21267
0.20956
0.20638
0.20315
0.19985
0.1965
0.19308
0.1896
0.18606
0.18245
0.17878
0.17504
0.17124
0.16737
0.16344
0.15944
0.15537
0.15124
0.14703
0.14276
0.13842
0.13401
0.12954
0.12499
0.12037
0.11568
0.11092
0.10609
0.10119
0.096219
0.091174
0.086057
0.080867
0.075604
0.070268
0.06486
0.059377
0.053822
0.048192
0.04249
0.036713
0.030864
0.02494
0.018944
0.012875
0.0067329
0.00051862
-0.0057677
-0.012125
-0.018554
-0.025053
-0.031622
-0.03826
-0.044966
-0.05174
-0.058579
-0.065484
-0.072453
-0.079485
-0.08658
-0.093735
-0.10095
-0.10822
-0.11555
-0.12294
-0.13039
-0.13788
-0.14543
-0.15304
-0.16069
-0.16839
-0.17615
-0.18394
-0.19179
-0.19968
-0.20761
-0.21558
-0.22359
-0.23164
-0.23973
-0.24785
-0.25601
-0.2642
-0.27241
-0.28066
-0.28893
-0.29722
-0.30554
-0.31387
-0.32222
-0.33059
-0.33897
-0.34736
-0.35575
-0.36415
-0.37255
-0.38095
-0.38934
-0.39773
-0.4061
-0.41447
-0.42281
-0.43114
-0.43945
-0.44773
-0.45598
-0.46421
-0.4724
-0.48056
-0.48868
-0.49676
-0.5048
-0.51279
-0.52074
-0.52864
-0.53648
-0.54428
-0.55201
-0.55968
-0.5673
-0.57485
-0.58233
-0.58974
-0.59708
-0.60435
-0.61154
-0.61866
-0.62569
-0.63263
-0.63949
-0.64627
-0.65295
-0.65953
-0.66602
-0.67241
-0.6787
-0.68488
-0.69096
-0.69692
-0.70278
-0.70851
-0.71413
-0.71963
-0.72501
-0.73027
-0.73539
-0.74039
-0.74526
-0.75
-0.7546
-0.75907
-0.7634
-0.76759
-0.77164
-0.77555
-0.77932
-0.78294
-0.78641
-0.78974
-0.79292
-0.79595
-0.79882
-0.80155
-0.80412
-0.80654
-0.80881
-0.81091
-0.81287
-0.81466
-0.8163
-0.81778
-0.8191
-0.82026
-0.82126
-0.8221
-0.82278
-0.8233
-0.82366
-0.82385
-0.82389
-0.82376
-0.82347
-0.82301
-0.8224
-0.82162
-0.82068
-0.81958
-0.81831
-0.81689
-0.8153
-0.81355
-0.81164
-0.80957
-0.80734
-0.80494
-0.8024
-0.79969
-0.79682
-0.7938
-0.79062
-0.78728
-0.78379
-0.78015
-0.77636
-0.77241
-0.76831
-0.76407
-0.75967
-0.75513
-0.75045
-0.74562
-0.74065
-0.73554
-0.73029
-0.72491
-0.71939
-0.71373
-0.70795
-0.70204
-0.696
-0.68984
-0.68355
-0.67714
-0.67062
-0.66397
-0.65721
-0.65034
-0.64336
-0.63626
-0.62906
-0.62175
-0.61433
-0.60682
-0.5992
-0.59148
-0.58366
-0.57575
-0.56774
-0.55964
-0.55145
-0.54317
-0.53481
-0.52635
-0.51782
-0.5092
-0.5005
-0.49173
-0.48288
-0.47395
-0.46495
-0.45589
-0.44675
-0.43755
-0.42829
-0.41897
-0.40959
-0.40015
-0.39066
-0.38111
-0.37152
-0.36188
-0.3522
-0.34248
-0.33271
-0.32291
-0.31308
-0.30321
-0.29331
-0.28338
-0.27342
-0.26344
-0.25343
-0.24341
-0.23336
-0.2233
-0.21322
-0.20313
-0.19303
-0.18292
-0.1728
-0.16268
-0.15256
-0.14244
-0.13231
-0.1222
-0.11208
-0.10198
-0.091887
-0.081808
-0.071744
-0.061698
-0.051673
-0.041671
-0.031696
-0.021748
-0.011833
-0.0019513
0.0078928
0.017697
0.027458
0.037174
0.046842
0.056459
0.066023
0.075532
0.084984
0.094376
0.10371
0.11297
0.12217
0.13131
0.14037
0.14936
0.15828
0.16713
0.1759
0.18459
0.19321
0.20174
0.21019
0.21856
0.22684
0.23504
0.24315
0.25117
0.2591
0.26694
0.27469
0.28234
0.2899
0.29736
0.30473
0.312
0.31917
0.32623
0.3332
0.34006
0.34682
0.35347
0.36001
0.36645
0.37278
0.37899
0.3851
0.3911
0.39699
0.40276
0.40842
0.41397
0.41941
0.42473
0.42994
0.43504
0.44003
0.4449
0.44966
0.4543
0.45884
0.46326
0.46757
0.47177
0.47586
0.47984
0.48371
0.48747
0.49112
0.49467
0.49811
0.50144
0.50467
0.50779
0.51081
0.51372
0.51654
0.51925
0.52186
0.52438
0.52679
0.52911
0.53133
0.53346
0.53549
0.53743
0.53928
0.54104
0.54271
0.54429
0.54578
0.54719
0.54851
0.54975
0.55091
0.55199
0.55299
0.55392
0.55476
0.55554
0.55624
0.55686
0.55742
0.55791
0.55833
0.55869
0.55898
0.5592
0.55937
0.55948
0.55952
0.55951
0.55945
0.55933
0.55916
0.55893
0.55866
0.55834
0.55797
0.55756
0.5571
0.5566
0.55606
0.55547
0.55485
0.5542
0.5535
0.55277
0.55201
0.55122
0.55039
0.54954
0.54865
0.54774
0.5468
0.54584
0.54485
0.54384
0.54281
0.54175
0.54067
0.53958
0.53846
0.53733
0.53618
0.53501
0.53383
0.53263
0.53141
0.53019
0.52895
0.52769
0.52643
0.52515
0.52386
0.52257
0.52126
0.51994
0.51861
0.51728
0.51593
0.51458
0.51322
0.51185
0.51048
0.50909
0.5077
0.50631
0.50491
0.5035
0.50208
0.50066
0.49923
0.4978
0.49636
0.49492
0.49347
0.49201
0.49055
0.48908
0.4876
0.48612
0.48463
0.48314
0.48164
0.48013
0.47862
0.4771
0.47557
0.47403
0.47249
0.47094
0.46938
0.46781
0.46623
0.46465
0.46305
0.46145
0.45983
0.4582
0.45657
0.45492
0.45326
0.45159
0.4499
0.4482
0.44649
0.44477
0.44303
0.44128
0.43951
0.43772
0.43592
0.4341
0.43227
0.43042
0.42855
0.42666
0.42475
0.42283
0.42088
0.41892
0.41693
0.41492
0.41289
0.41083
0.40876
0.40666
0.40454
0.40239
0.40022
0.39802
0.3958
0.39356
0.39128
0.38898
0.38666
0.38431
0.38193
0.37952
0.37708
0.37462
0.37213
0.36961
0.36707
0.36449
0.36188
0.35925
0.35658
0.35388
0.35116
0.3484
0.34561
0.34279
0.33993
0.33704
0.33412
0.33117
0.32818
0.32515
0.32209
0.319
0.31587
0.3127
0.30949
0.30625
0.30297
0.29965
0.29629
0.2929
0.28946
0.28598
0.28247
0.27891
0.27531
0.27167
0.26799
0.26427
0.2605
0.25669
0.25285
0.24895
0.24502
0.24104
0.23702
0.23295
0.22885
0.22469
0.22049
0.21625
0.21196
0.20763
0.20325
0.19882
0.19435
0.18983
0.18526
0.18065
0.17598
0.17127
0.16651
0.1617
0.15683
0.15192
0.14696
0.14194
0.13688
0.13176
0.12659
0.12136
0.11609
0.11076
0.10538
0.099947
0.09446
0.088919
0.083325
0.077678
0.071978
0.066224
0.060417
0.054558
0.048646
0.042682
0.036667
0.0306
0.024482
0.018314
0.012096
0.0058297
-0.00048496
-0.0068468
-0.013255
-0.019708
-0.026206
-0.032746
-0.039329
-0.045951
-0.052613
-0.059312
-0.066046
-0.072815
-0.079617
-0.08645
-0.093312
-0.1002
-0.10712
-0.11406
-0.12103
-0.12801
-0.13502
-0.14205
-0.14909
-0.15615
-0.16323
-0.17032
-0.17741
-0.18452
-0.19164
-0.19877
-0.2059
-0.21303
-0.22017
-0.22731
-0.23444
-0.24158
-0.24871
-0.25584
-0.26296
-0.27008
-0.27719
-0.28429
-0.29137
-0.29845
-0.30552
-0.31257
-0.31961
-0.32663
-0.33364
-0.34063
-0.3476
-0.35456
-0.36149
-0.3684
-0.37529
-0.38216
-0.389
-0.39582
-0.40261
-0.40937
-0.41611
-0.42282
-0.42949
-0.43614
-0.44275
-0.44933
-0.45587
-0.46238
-0.46885
-0.47528
-0.48167
-0.48802
-0.49432
-0.50058
-0.5068
-0.51297
-0.51909
-0.52516
-0.53118
-0.53715
-0.54307
-0.54893
-0.55474
-0.5605
-0.56619
-0.57183
-0.5774
-0.58292
-0.58837
-0.59376
-0.59909
-0.60435
-0.60955
-0.61467
-0.61973
-0.62472
-0.62964
-0.63448
-0.63925
-0.64394
-0.64856
-0.6531
-0.65756
-0.66194
-0.66623
-0.67045
-0.67458
-0.67862
-0.68257
-0.68644
-0.69021
-0.69389
-0.69747
-0.70096
-0.70436
-0.70765
-0.71084
-0.71394
-0.71692
-0.71981
-0.72259
-0.72526
-0.72783
-0.73028
-0.73263
-0.73486
-0.73698
-0.73898
-0.74087
-0.74265
-0.7443
-0.74584
-0.74726
-0.74855
-0.74973
-0.75078
-0.75171
-0.75251
-0.75319
-0.75375
-0.75417
-0.75447
-0.75464
-0.75468
-0.75459
-0.75437
-0.75401
-0.75353
-0.75291
-0.75216
-0.75127
-0.75025
-0.7491
-0.74781
-0.74638
-0.74482
-0.74313
-0.74129
-0.73932
-0.73722
-0.73497
-0.73259
-0.73007
-0.72742
-0.72463
-0.7217
-0.71863
-0.71543
-0.71209
-0.70862
-0.70501
-0.70127
-0.69739
-0.69338
-0.68924
-0.68496
-0.68056
-0.67602
-0.67135
-0.66654
-0.66161
-0.65655
-0.65137
-0.64605
-0.64061
-0.63504
-0.62935
-0.62354
-0.6176
-0.61154
-0.60536
-0.59906
-0.59264
-0.58611
-0.57946
-0.5727
-0.56582
-0.55883
-0.55174
-0.54454
-0.53723
-0.52981
-0.5223
-0.51469
-0.50698
-0.49917
-0.49127
-0.48329
-0.47521
-0.46705
-0.45881
-0.45049
-0.44209
-0.43362
-0.42508
-0.41647
-0.40779
-0.39905
-0.39025
-0.38139
-0.37248
-0.36351
-0.3545
-0.34543
-0.33632
-0.32717
-0.31798
-0.30875
-0.29948
-0.29018
-0.28085
-0.27149
-0.26211
-0.25271
-0.24328
-0.23384
-0.22439
-0.21492
-0.20544
-0.19596
-0.18648
-0.17699
-0.16751
-0.15804
-0.14857
-0.13912
-0.12968
-0.12026
-0.11086
-0.10149
-0.092149
-0.08284
-0.073566
-0.064332
-0.055139
-0.045992
-0.036892
-0.027843
-0.018847
-0.0099069
-0.0010245
0.0077978
0.016558
0.025253
0.033883
0.042444
0.050934
0.059354
0.0677
0.07597
0.084165
0.092282
0.10032
0.10828
0.11615
0.12394
0.13165
0.13928
0.14681
0.15427
0.16163
0.1689
0.17609
0.18318
0.19018
0.19709
0.20391
0.21063
0.21726
0.2238
0.23023
0.23658
0.24282
0.24897
0.25501
0.26096
0.26681
0.27256
0.27822
0.28377
0.28922
0.29457
0.29982
0.30497
0.31002
0.31497
0.31981
0.32456
0.32921
0.33375
0.3382
0.34254
0.34679
0.35093
0.35498
0.35893
0.36277
0.36652
0.37017
0.37373
0.37718
0.38054
0.38381
0.38698
0.39006
0.39304
0.39593
0.39874
0.40145
0.40407
0.4066
0.40904
0.4114
0.41367
0.41586
0.41796
0.41998
0.42192
0.42378
0.42556
0.42726
0.42888
0.43042
0.43189
0.43328
0.4346
0.43585
0.43702
0.43812
0.43916
0.44012
0.44101
0.44184
0.4426
0.4433
0.44393
0.44449
0.445
0.44544
0.44582
0.44614
0.4464
0.44661
0.44676
0.44685
0.44689
0.44687
0.44681
0.44669
0.44652
0.4463
0.44604
0.44573
0.44537
0.44497
0.44453
0.44404
0.44351
0.44294
0.44233
0.44169
0.441
0.44028
0.43953
0.43874
0.43792
0.43706
0.43618
0.43526
0.43432
0.43334
0.43234
0.43131
0.43026
0.42918
0.42808
0.42695
0.42581
0.42464
0.42345
0.42224
0.42101
0.41976
0.4185
0.41722
0.41593
0.41462
0.4133
0.41196
0.41062
0.40926
0.40789
0.40651
0.40512
0.40373
0.40233
0.40092
0.3995
0.39808
0.39665
0.39522
0.39379
0.39236
0.39092
0.38948
0.38804
0.3866
0.38516
0.38373
0.38229
0.38086
0.37943
0.37801
0.37659
0.37517
0.37376
0.37235
0.37095
0.36956
0.36817
0.36679
0.36542
0.36405
0.3627
0.36135
0.36001
0.35867
0.35735
0.35603
0.35473
0.35343
0.35214
0.35086
0.34959
0.34832
0.34707
0.34582
0.34458
0.34336
0.34213
0.34092
0.33972
0.33852
0.33733
0.33615
0.33497
0.3338
0.33264
0.33148
0.33033
0.32918
0.32804
0.3269
0.32577
0.32464
0.32351
0.32239
0.32127
0.32015
0.31903
0.31792
0.3168
0.31569
0.31458
0.31347
0.31235
0.31124
0.31013
0.30901
0.3079
0.30678
0.30566
0.30453
0.30341
0.30228
0.30115
0.30001
0.29887
0.29773
0.29658
0.29543
0.29427
0.29311
0.29194
0.29077
0.2896
0.28841
0.28723
0.28603
0.28483
0.28363
0.28242
0.2812
0.27997
0.27875
0.27751
0.27627
0.27502
0.27377
0.27251
0.27124
0.26997
0.26869
0.26741
0.26612
0.26483
0.26353
0.26223
0.26092
0.25961
0.25829
0.25697
0.25565
0.25433
0.253
0.25166
0.25033
0.24899
0.24765
0.2463
0.24495
0.2436
0.24225
0.2409
0.23954
0.23817
0.23681
0.23544
0.23406
0.23269
0.23131
0.22992
0.22853
0.22713
0.22573
0.22432
0.2229
0.22148
0.22004
0.2186
0.21715
0.21569
0.21422
0.21274
0.21125
0.20974
0.20822
0.20668
0.20513
0.20356
0.20197
0.20036
0.19874
0.19709
0.19542
0.19373
0.19201
0.19027
0.18851
0.18671
0.18489
0.18304
0.18116
0.17925
0.1773
0.17532
0.1733
0.17125
0.16916
0.16704
0.16487
0.16266
0.16041
0.15812
0.15578
0.1534
0.15097
0.14849
0.14597
0.14339
0.14077
0.13809
0.13536
0.13257
0.12973
0.12684
0.12388
0.12087
0.1178
0.11467
0.11148
0.10823
0.10491
0.10153
0.098093
0.094587
0.091015
0.087378
0.083674
0.079904
0.076066
0.072161
0.068188
0.064147
0.060038
0.05586
0.051613
0.047298
0.042915
0.038463
0.033944
0.029356
0.024701
0.019979
0.015189
0.010333
0.0054103
0.00042128
-0.0046336
-0.009754
-0.01494
-0.02019
-0.025505
-0.030884
-0.036327
-0.041832
-0.047401
-0.053031
-0.058722
-0.064475
-0.070287
-0.076159
-0.08209
-0.088078
-0.094123
-0.10022
-0.10638
-0.11259
-0.11885
-0.12517
-0.13153
-0.13794
-0.1444
-0.15091
-0.15746
-0.16406
-0.17069
-0.17737
-0.18408
-0.19082
-0.1976
-0.20441
-0.21125
-0.21812
-0.22501
-0.23193
-0.23886
-0.24582
-0.25279
-0.25977
-0.26677
-0.27377
-0.28079
-0.28781
-0.29483
-0.30186
-0.30888
-0.3159
-0.32292
-0.32993
-0.33693
-0.34392
-0.35089
-0.35785
-0.36478
-0.3717
-0.37859
-0.38546
-0.39229
-0.39909
-0.40586
-0.41259
-0.41928
-0.42593
-0.43253
-0.43908
-0.44558
-0.45203
-0.45841
-0.46474
-0.471
-0.47719
-0.48331
-0.48935
-0.49532
-0.50121
-0.50701
-0.51273
-0.51836
-0.52389
-0.52934
-0.53468
-0.53993
-0.54508
-0.55012
-0.55506
-0.55989
-0.56461
-0.56922
-0.57372
-0.5781
-0.58236
-0.5865
-0.59052
-0.59442
-0.5982
-0.60185
-0.60537
-0.60877
-0.61203
-0.61517
-0.61817
-0.62104
-0.62377
-0.62637
-0.62883
-0.63115
-0.63334
-0.63538
-0.63729
-0.63905
-0.64067
-0.64215
-0.64348
-0.64467
-0.64572
-0.64662
-0.64737
-0.64798
-0.64844
-0.64876
-0.64893
-0.64895
-0.64883
-0.64856
-0.64814
-0.64758
-0.64687
-0.64602
-0.64502
-0.64387
-0.64259
-0.64115
-0.63958
-0.63786
-0.636
-0.634
-0.63186
-0.62958
-0.62717
-0.62461
-0.62192
-0.6191
-0.61614
-0.61305
-0.60983
-0.60648
-0.603
-0.5994
-0.59567
-0.59181
-0.58784
